-0.151089358400694 -0.06769196563511387
56.095383542010275 -2.898422797714489
-1158.7857222857726 49.180367413289
14701.397195474548 -469.9366240012091
-138482.7942262655 2608.6450107944784
1032377.3597528727 -3339.3121122334546
-6280715.675393232 -92895.32284564422
31707421.835115697 1116692.9868534862
-134031725.8590033 -7785749.677828585
476120392.075721 39776570.05481276
-1419530813.9098017 -158865261.10087934
3527946804.424765 507644965.97575146
-7200824354.923281 -1302681338.7685432
11721600087.864115 2651209216.841348
-14290617326.851109 -4125900319.221853
10894286526.430338 4459834152.018288
-486857258.33318025 -2250023731.289167
-10467325658.72652 -2025455246.7426364
11000367071.98779 4776915611.663478
1299657181.5853086 -2284559983.933357
-12072553027.816551 -3427630382.662582
5643610181.8083515 4696503871.22306
9639725556.315817 1267233391.1514478
-9111652123.519976 -5550946138.6761
-7437695228.977682 295513484.1679954
10432904581.184797 5840562484.506603
6670741197.060574 -976218911.6657746
-10563657945.690878 -6119000890.746973
-7428291215.162085 768923818.9645548
9658637452.773758 6479693034.15428
9346982268.67203 326394371.7609247
-7367282815.902241 -6647406318.07776
-11630319522.163416 -2255158815.9662204
3276100978.645524 6091326025.78596
12972855542.814413 4681397102.810142
2494536262.047786 -4220870205.9139705
-11773583250.350864 -6800740958.38282
-8689410085.536013 806026918.8139443
6885672303.353094 7379968224.309524
12799696054.30378 3524846885.8093276
1195567582.4034753 -5305085457.511523
-11985954789.940166 -7045542393.382826
-9491929640.578037 547655783.2459278
5113908877.547718 7519820006.480624
13293397173.353195 5018697843.249011
5192946872.345267 -3736939323.0623674
-9102657738.486183 -8022746893.6363325
-12668604861.531204 -2786133563.162492
-1639839889.7011847 5735343988.101471
11201848252.64377 7744293025.830031
11587953144.491026 1071678441.9441359
-631811416.4939919 -6809767515.535852
-12131159056.106945 -7359450305.810669
-10857379743.921362 -96869910.3837257
1608135441.9389253 7288301159.4638
12399414994.778593 7216718393.876489
10784315784.818993 -129644633.96403342
-1404269111.0331135 -7357737254.562997
-12191804602.260756 -7417719772.349163
-11356893540.718296 -358805249.28467745
103609000.06367624 7042284091.299918
11426605245.90117 7891858250.592541
12336985250.453714 1511555599.4331179
2207666002.541582 -6229919405.716245
-9832107271.810379 -8423274991.956828
-13285589769.177402 -3231331866.013188
-5339702370.463221 4747245534.406723
7093032501.097537 8666383271.588913
13568396121.083517 5294211025.420141
8857201085.262869 -2461691450.138359
-3029938606.5705996 -8184592758.254124
-12447956236.363216 -7283492716.923224
-11981896771.711445 -577962937.1231942
-2155234697.282581 6561295155.844025
9298551783.729916 8576771275.576436
13622223857.382282 4000739314.7249293
7671760474.926715 -3591023733.051589
-3964699099.1559772 -8461117731.49756
-12639814780.760351 -7045234986.844946
-12091722935.60193 -479579862.6762171
-2856884074.6690645 6400450583.142421
8366431050.629114 8667065991.144716
13662784561.678598 4791660600.606298
9440362443.309639 -2413433758.9379234
-1249660199.7364392 -7905813116.166804
-11037848077.668625 -7953041898.471729
-13348307592.820688 -2612176525.4038434
-6759931024.178553 4442323499.165467
4246947778.593232 8501541664.952099
12419133772.244783 6947604247.231129
12523093113.785564 888125531.2131212
4620053970.505935 -5695085606.187484
-6156150754.6300745 -8594776966.705915
-12999601085.817713 -6043483155.255979
-11722277079.443836 266480058.97005063
-3242735193.360895 6355739393.656077
7148941685.396817 8486749470.577963
13141512930.262165 5433320036.6514435
11220807790.58446 -866505166.871153
2661211436.327178 -6587175481.313146
-7388893807.473491 -8346571780.19567
-13041838311.266447 -5183530562.344945
-11107128914.126432 965846751.1854427
-2825626515.481641 6491852615.8333435
6979236791.630154 8237489110.850384
12752125266.153732 5281563258.496892
11336473733.411533 -620224030.8560724
3649270891.562139 -6108194949.9897
-5962337786.096513 -8142266475.589223
-12211002686.497162 -5666170668.340269
-11772370355.226706 -119325259.17252195
-5009638439.143923 5426820428.694549
4347734308.211264 7983797800.068987
11286828108.97382 6238347242.153461
12204134128.028076 1199293181.1789105
6735693605.745883 -4413425260.112113
-2156301070.5481925 -7647620181.870865
-9823480530.612276 -6864791391.6442175
-12365781185.306526 -2542069261.9999065
-8590065810.14581 3036524436.2746644
-528791844.7661853 7002589504.279091
7689965192.893862 7374716695.164057
11965188692.568918 4028289022.563303
10258725072.948442 -1297847952.8567884
3525825650.6653214 -5921816636.363073
-4837980841.6174345 -7570323714.982682
-10736580938.234497 -5482786251.629228
-11366556237.781311 -738229769.8454143
-6527775412.842615 4318894055.902082
1363189053.4478807 7246136817.117544
8499851346.500084 6669235609.408141
11527678763.294952 2916806732.965864
9102423655.233438 -2187721102.93513
2459367679.1670427 -6220904662.708424
-5240183047.056936 -7307075566.922022
-10420422250.102543 -4979727801.2066
-10747515168.520237 -358569112.83598983
-6158047523.8935375 4399651072.658146
1175696214.4587607 7113062654.87433
7889748069.586256 6569369749.616862
10976359196.788471 3048290299.6014214
9112526810.413616 -1831122486.9064708
3208068251.838567 -5871337269.404713
-4054244862.6638007 -7277376503.20303
-9455013066.15626 -5451564147.997152
-10651308336.095005 -1223166238.7826686
-7182551743.859892 3532983498.6299405
-621513974.4987688 6740917959.702226
6151717340.127081 7017059792.43455
10221788269.891706 4262206632.320821
9877531005.854076 -324167728.4403186
5322449080.910121 -4773298231.057641
-1464850162.555758 -7198169692.940907
-7589603806.042745 -6580525237.443695
-10487899628.930216 -3195058957.678095
-8978074544.541815 1535453229.8659122
-3731709314.340268 5639953269.755965
3042066793.292113 7420778825.49482
8535393031.4775715 6149919905.02939
10504892993.5561 2356479245.8901896
8167987226.563607 -2415727704.96985
2508012809.515532 -6228460346.418851
-4163759680.5823793 -7547763413.006491
-9148257906.029255 -5843565727.404906
-10455885769.30943 -1796850285.1915255
-7582181283.926477 2985185651.5244017
-1684202407.7593331 6617164664.949933
4888710017.70103 7670154405.613525
9546597605.630007 5730293286.587067
10465491367.282227 1546491778.070019
7295922283.423554 -3264122197.2675815
1274165864.8981836 -6851345657.268091
-5263489235.290693 -7838092788.1462965
-9799772657.6018 -5842728098.957127
-10598211853.068949 -1616547722.7533345
-7348870054.271683 3253247569.9240003
-1287652552.7589636 6938532893.495486
5300245643.890547 8057696333.8503685
9929738221.187399 6187864533.592297
10867409287.302288 2012091159.3655353
7752475922.608329 -2939026467.37634
1732419564.9437895 -6851341977.327281
-4974697627.14097 -8294993782.111611
-9902079209.880093 -6735828488.894071
-11240254616.343954 -2729859265.8676653
-8486336695.218484 2290460759.3294525
-2624506658.814159 6530499098.477487
4238914899.0614424 8476465721.89757
9638190933.56221 7428430901.612594
11632168809.21951 3748474382.728011
9493804493.75697 -1278630317.6025035
3958315945.208556 -5897635278.386093
-3029706886.502213 -8495673926.80599
-9018663193.371988 -8165413940.971871
-11903356574.84715 -5010026363.419379
-10661060976.722298 -107301594.26645875
-5698622754.472906 4866861549.858459
1286988131.8372593 8218081893.682009
7899581889.982878 8801012693.194447
11869279038.73715 6410511360.142342
11819338821.01981 1842924525.7901423
7745499910.912651 -3372353821.0816107
1003920882.9641774 -7497227206.303924
-6146243076.590349 -9153411841.6394
-11302811079.9328 -7786923190.519087
-12725364398.598629 -3840402947.2510967
-9917862301.535025 1394013693.2357593
-3786084475.071233 6202783035.506242
3662887576.923155 9018252195.824265
9978350186.10325 8917791306.61928
13080757817.548986 5929607436.96705
11933697823.537962 1010744326.7634746
6886631055.875266 -4259422391.4236364
-446826906.7429509 -8195389881.975884
-7709015268.828791 -9538056518.879236
-12557924830.19455 -7854900641.208124
-13420469026.081944 -3675862597.11273
-9999946186.696756 1684600382.9247673
-3358142677.8345823 6540458651.60215
4414303020.661501 9370983076.404549
10863031859.154156 9288286441.543749
13948213336.706388 6316137332.653318
12678286106.777033 1371630627.7188177
7426201627.673693 -4018514120.977009
-191766306.2865106 -8194303959.171322
-7819949760.678271 -9871759258.62373
-13094675423.001991 -8536649340.778693
-14371740239.949467 -4593597424.391309
-11236130280.10658 760826557.2357177
-4625179139.408202 5904268171.7484045
3459887526.6040845 9284668976.826382
10560075301.27393 9882720343.9633
14514432996.810461 7518752190.949142
14107259266.87389 2898708935.641306
9438819268.271065 -2599324382.760359
1889759922.8929102 -7343670595.819161
-6289825359.634407 -9926578725.056536
-12657319815.015228 -9587031347.426006
-15305567191.691862 -6424776912.973405
-13426409783.140335 -1368571719.3433378
-7555744819.122448 4102287796.0764694
594993804.856904 8390651752.105699
8635448643.702938 10249010715.981743
14205718392.42595 9141156865.318253
15662542451.0348 5388914052.010095
12560002417.151493 74583815.76352799
5779969877.090534 -5271998893.894467
-2728866278.2394958 -9119376084.120497
-10513195970.489532 -10367703408.621262
-15325018726.861868 -8665388089.952803
-15765814104.487427 -4499164101.345888
-11689244183.342573 949085310.2034664
-4241334973.2071137 6137356680.142274
4470424091.043488 9604463194.429625
11972290936.889408 10377771791.767868
16134552669.969124 8245341721.263402
15763628143.365383 3806584977.3262353
10947080242.895603 -1696283936.267087
3019473812.262429 -6733477735.945763
-5808860781.14422 -9908666079.040503
-13071355913.140415 -10347904182.168205
-16736580677.734743 -7935114846.693472
-15770359938.772438 -3339690407.0824966
-10423510029.753359 2172877673.064559
-2159735417.2027125 7093853126.768699
6752069091.100403 10079440853.846563
13859968714.341663 10323856545.067081
17205777332.18374 7765648784.26481
15861695357.023802 3105245818.2336164
10177604463.341976 -2391163047.5852866
1687337852.0749173 -7242750302.528869
-7308106958.4504795 -10145563417.462421
-14374294886.450047 -10327776146.630838
-17591383953.138992 -7747087555.481844
-16081467020.637983 -3102586718.5686035
-10237141057.178432 2363775571.9690113
-1614441097.9966803 7197423654.554424
7484129809.007816 10118663454.13832
14629236333.277067 10363170466.608221
17908529661.59053 7874701021.1111965
16444079780.901033 3318644370.2864614
10610142022.316307 -2101345347.973299
1942926762.6777744 -6962736407.654663
-7276233577.395209 -9996257258.970587
-14618878982.725204 -10418808633.233889
-18149969591.48729 -8130275294.614995
-16935908246.716297 -3735994879.384512
-11286358908.545765 1615721799.6166022
-2667804805.092268 6538546181.589712
6677657113.441565 9763683328.844427
14322845898.823149 10468582328.36639
18279715617.322483 8483154063.072633
17520784797.479843 4330217369.677581
12232851275.361115 -918779676.6913307
3775978408.184388 -5919466543.575735
-5678258851.714978 -9397230288.017914
-13706720970.029364 -10476593882.35917
-18245894406.597996 -8895155987.078384
-18134151393.885475 -5067136073.009151
-13398684093.550503 27691785.32818702
-5238695458.842201 5098829447.630077
4272158983.4476542 8868928779.067156
12724836466.780518 10398615303.268206
17975032650.888165 9315453698.029272
18698078067.14998 5906390342.105284
14708805402.278486 1034967744.673103
7012050515.209834 -4074895306.176152
-2461432604.689475 -8150791865.980959
-11334928764.818308 -10185649625.706808
-17388640605.28846 -9687265706.553797
-19108891061.902298 -6794533655.325337
-16069966565.851257 -2236096486.3516107
-9027522411.482475 2853371564.3419747
264450822.45228434 7216985939.100226
9504421188.991596 9789177122.5812
16402827899.560621 9947329356.316082
19255464599.08673 7669995241.133615
17363443122.53878 3529366253.591642
11194404619.56586 -1451687879.706499
2269278753.887948 -6055237214.050101
-7217395601.99556 -9161907430.100163
-14942489949.074728 -10029612888.144623
-19016467502.473454 -8461379912.436758
-18452370905.992004 -4855243277.244734
-13389150830.033535 -94803184.63919222
-5068787755.938906 4661810258.6556835
4485115555.071332 8270137607.715578
12950453062.822372 9869571499.472082
18280646331.668 9091759230.678663
19189381547.178673 6139876218.683428
15467676182.786476 1735872498.366294
8018377543.203885 -3056346805.9421387
-1356813800.3792665 -7091909613.735773
-10403243152.137028 -9413640786.908205
-16946118500.092142 -9482778574.610306
-19428088191.164394 -7299793014.7206955
-17260555434.82908 -3400137548.771063
-10970421835.783913 1280924570.482039
-2071511259.8912365 5628861144.21507
7313728130.36081 8620040227.93867
14948247204.159552 9560559389.441702
19026133759.830948 8243805351.104106
18586527712.55448 4998724784.884796
13747352140.264399 602113838.6147957
5662522036.8291025 -3906633695.5446877
-3748587272.7850204 -7470220958.834159
-12261168987.380125 -9264241059.099838
-17874823871.979763 -8882853470.632746
-19272699932.618553 -6432917772.075393
-16142790900.949644 -2502808624.6202374
-9228803165.053669 1981268707.9145496
-168844444.14043045 5973543675.961317
8915975079.2588 8552115816.592745
15900027412.62645 9132278411.813292
19159072792.244614 7596000021.738065
17945076133.068428 4316596415.786041
12555999076.570139 64902970.48052579
4259209893.6655645 -4170141898.8257837
-5008502033.015718 -7414011504.424752
-13094087242.369133 -8929827281.217308
-18125871068.081272 -8384255838.629058
-18951465385.920025 -5920754247.675999
-15394843683.533857 -2120991156.954987
-8294166138.737112 2134500779.3502226
702408451.5827641 5870122287.946699
9511820936.186337 8237257919.0322075
16111322529.190292 8709126442.115307
18989088601.423355 7194574200.110283
17501415333.53606 4056405178.1121616
12004674800.380259 23655632.224826336
3774186395.763157 -3983212421.310681
-5295402792.342022 -7054699238.706534
-13127611416.740503 -8505637789.572039
-17939087870.634476 -8021524374.82643
-18645703817.20981 -5730436143.83523
-15103162983.99017 -2167197744.0375853
-8134562861.16936 1854875486.526282
659957936.2619328 5425860747.154357
9275294997.888899 7746781499.8064785
15759653487.819983 8309572736.106139
18650850238.597137 7003401670.324268
17307230560.929226 4139534341.0135703
12056556783.91066 374369410.2853972
4100220268.002429 -3440830684.0615873
-4753410941.895151 -6454432408.652091
-12502090497.72972 -8001237912.461785
-17406908315.021027 -7752062787.365446
-18375789580.6781 -5779254587.691051
-15207767730.498144 -2537962260.1538873
-8637409849.92355 1236565597.1154857
-154361916.69600558 4701622893.213577
8329072671.322293 7092243181.154702
14912570813.368788 7889443008.1773815
18132026687.942528 6933568349.340078
17284565612.138798 4454532714.579565
12578560856.815367 1015395258.2257197
5085227322.615905 -2615312686.9555144
-3509039077.66424 -5633173809.828342
-11284123555.221642 -7381363593.43861
-16512326532.874557 -7488246874.9189415
-18044097129.171597 -5948004067.52004
-15558345376.67284 -3117261359.3265953
-9629581137.464382 368601168.2672979
-1592817371.739429 3737893900.0218744
6759701531.245696 6254426460.745546
13574988324.212225 7376268206.677506
17351473017.75849 6873172043.917115
17270172810.590923 4873996589.076436
13373736545.38442 1832699219.900693
6543474922.250994 -1575843018.8910093
-1696227100.3032346 -4604267325.899637
-9517911131.844473 -6596860969.366656
-15201001431.28414 -7132888093.729441
-17506472260.865414 -6112195126.511294
-15947556979.066704 -3775674897.5877843
-10890455187.992662 -646808269.5786536
-3466844835.7926426 2588331147.2128086
4673087304.983335 5224031269.9077635
11743121203.761305 6699041358.47787
16196092616.756197 6707413185.515996
17074555982.533457 5265746862.61113
14207725611.223532 2703462690.591315
8248408291.578434 -411740948.35204566
520536719.12205267 -3400406438.226103
-7271542160.032135 -5620007809.685617
-13429200727.245827 -6602294157.870056
-16617340626.10343 -6151555582.331185
-16155587761.955593 -4382238774.689102
-12175294252.029194 -1694005023.406474
-5566122633.055722 1324806181.1823442
2211677353.2311277 4020027228.8199534
9456404884.47638 5819258294.264212
14595008610.92077 6347066358.175543
16526414406.363071 5508787729.290458
14850750325.10532 3502235960.2145295
9957705328.312115 771851306.2348868
2938194188.5866857 -2085915186.4907136
-4668374165.566324 -4459750772.091478
-11211818678.058668 -5849324164.782849
-15273709992.669523 -5971584771.768135
-15996721094.960272 -4818988346.230293
-13250314103.238127 -2654881950.862721
-7652405879.4780245 45168848.11822307
-439656853.4458275 2696808199.944927
6811920478.54953 4736602490.443114
12538866461.851887 5740924654.117586
15509516226.761677 5510578756.642872
15105272166.366201 4112024402.0769615
11439302833.534735 1862071251.2772393
5333073586.4155 -749827320.3832741
-1875241399.6895704 -3163263679.643817
-8620384893.977596 -4869998691.90831
-13453592859.6433 -5520174583.052855
-15345451944.948837 -4990782092.237895
-13913880780.160946 -3414591538.7107434
-9497730515.430302 -1140828866.4147017
-3069531981.587721 1338613719.5192919
3962828005.7377396 3495146033.959918
10083781077.157368 4880390697.158391
13979888996.790062 5211567679.570149
14837847758.733768 4439806825.096978
12494342986.848505 2744639755.459256
7484689275.145262 499845938.0080426
912028710.3049617 -1813255267.871318
-5799570699.989567 -3704634912.750921
-11201865046.2801 -4784135779.373451
-14149375622.440304 -4839770026.658764
-14030134869.83355 -3876982801.455071
-10900460819.825392 -2116812662.2073352
-5460009000.413302 55441884.888317704
1099856897.014693 2177288470.528798
7363008693.5460615 3803656158.553566
11983262694.96812 4602942764.549074
13988816309.761248 4421943819.061461
12974401167.087818 3319384284.1504583
9189027784.360907 1542438325.1195717
3469025489.678598 -522992027.3828732
-2932956540.645356 -2438173194.659539
-8643144297.361662 -3806514369.2057247
-12442041984.81522 -4351941286.455634
-13533753026.507463 -3977195089.3270526
-11715353448.817366 -2779794446.063144
-7406540052.847274 -1027534608.1761495
-1555555045.942625 902438182.8663671
4565036991.867802 2604256891.9756165
9640991100.147167 3726043534.3723354
12595140316.127708 4048025756.8125086
12817738580.622482 3519684340.807325
10294048489.354296 2270455339.569548
5592050107.624255 576440964.8508129
-251796479.44574046 -1197913758.9707348
-5974075295.415297 -2683392968.4236946
-10352609231.94421 -3576453777.737854
-12458987403.797804 -3705365771.5627627
-11874246817.8583 -3062735810.5992994
-8751131377.098717 -1799275786.715651
-3790240569.4295783 -193178288.74978876
1920855589.3477697 1412686507.0344503
7149932178.884397 2686216301.184892
10782991789.276522 3370447785.073977
12059331614.900154 3339572272.387041
10732830362.038626 2617764788.704893
7126001909.930307 1373168962.174288
2035892145.316351 -121746513.49610806
-3425703742.267046 -1551959676.5498261
-8081954285.757988 -2622617252.498293
-10941049269.667448 -3121480586.3013678
-11414874296.958214 -2961890413.544649
-9433239653.137619 -2195836794.777193
-5453957320.842636 -998738159.0638783
-358025207.67070127 369605013.84812903
4744568775.267633 1620753026.675997
8758108779.250696 2501960958.5490828
10833624529.395805 2841250686.189934
10551790554.100275 2584980139.680006
8005658167.755761 1806584449.5262341
3775849048.5070815 681157592.4864497
-1206413674.455453 -548669710.9519769
-5857383373.49408 -1626235300.9062815
-9177062034.435844 -2335259625.7747912
-10472598664.735893 -2542115453.1544685
-9495036670.228905 -2221757497.1222553
-6486933428.651334 -1458457100.5998676
-2124617431.0219646 -423037338.63170457
2627427447.221916 662161055.7107949
6740310196.830288 1573496050.395127
9335048467.290096 2132188458.429412
9874004411.120062 2236076307.935948
8273092843.3965 1881933110.4215336
4910038344.441673 1158759962.6784203
541011951.2016919 228918327.98361754
-3873976215.721252 -711080630.14239
-7378663076.782502 -1470633807.661714
-9229818487.000896 -1903138990.9092007
-9051405068.180399 -1934608470.6915047
-6915833896.5378475 -1575663107.3783195
-3318418071.759224 -915593351.0077535
937126933.7119007 -100375655.35181272
4915382590.813199 699617920.4635174
7757765821.795294 1325097431.7361042
8864859149.923826 1659021166.7963552
8026457638.140659 1649142049.9458544
5458357641.052903 1312950387.1169887
1749835002.5872314 734082604.7091683
-2271272015.8810496 37807205.87266731
-5723000740.265441 -632039902.8175576
-7862358566.680636 -1146233292.9590178
-8246732690.053669 -1411546570.9895902
-6824595697.370557 -1390730586.7583904
-3938676660.203254 -1102668461.3811975
-250009395.90346944 -617899790.5136747
3420358021.4633627 -40380039.85484028
6269125884.316526 515179825.804523
7686183281.921295 943809573.8367443
7388669629.120947 1172826005.3400598
5476659411.370643 1171185390.778095
2402286751.122087 952578007.8198335
-1133880181.5888808 570473497.6074606
-4345612140.008114 103974990.95958453
-6530525965.3857565 -357472410.11962926
-7225820957.147055 -730871936.5318075
-6311660819.261897 -956033857.3750327
-4024800893.767681 -1001585420.5969548
-897234569.7628214 -869019761.6841402
2353417865.0719366 -591834787.5234437
5007185288.621459 -223357145.00379986
6487073460.299774 170335427.78782517
6489094259.07942 521861257.2860651
5046329465.392317 775573513.4426471
2514982809.408706 892931720.4021506
-516103749.3193953 857816574.8082247
-3355189236.171471 679510427.218475
-5372064191.643842 388201175.15073586
-6129948250.412434 31462784.787534706
-5493000899.922884 -333412259.46424514
-3634721735.3663006 -646212054.4501319
-1006714896.7800653 -854816360.3834426
1780063127.40283 -920473342.0004504
4087470056.076432 -828088220.8408127
5406172515.642145 -585904627.3054851
5458775783.379343 -230210930.96849927
4267394060.0798497 183388256.44514132
2132699450.067719 582872865.4100057
-429368839.01800084 895665582.2797623
-2823055376.961647 1056858775.1227651
-4499809777.58411 1027556450.5833392
-5092440650.173937 799970335.1697621
-4489521851.101095 404723583.8256857
-2862609751.682966 -92379063.71318918
-612269628.04822 -600816771.3237362
1716531494.8237727 -1020711880.4009383
3579062389.578724 -1261621628.4242656
4552353951.148874 -1262206737.4825945
4424244663.3226185 -1007032365.1936858
3253722537.439365 -531692698.1766631
1341330292.2116675 80419976.667306
-840631706.2638971 711520134.389984
-2767479396.7573667 1230964753.431547
-3982414673.8839774 1522486133.358539
-4209705253.548209 1511460954.1898782
-3415278554.241318 1181800882.5697675
-1808852654.3690975 585102466.893797
204191486.47626403 -167340409.02231228
2126925876.9208004 -923119546.5241069
3494647886.474123 -1520386118.7007556
3974714795.650228 -1822117581.6831048
3466413271.682781 -1747390503.5004594
2105384553.7694354 -1292990645.9394307
236634045.46051165 -537669598.2679402
-1669178919.5505853 368785418.89555603
-3139392687.0411334 1237043387.4744763
-3810906023.765502 1875025571.4410136
-3516930712.0849886 2132882977.9050994
-2335448786.682428 1935768845.0956311
-565951127.6093657 1306696829.613859
1349249054.4559178 364835990.7914038
2925897523.6666794 -695505409.812556
3764161988.6718235 -1645626146.7708035
3647264853.1957946 -2270190572.449821
2597102593.6787376 -2417525360.416384
873488218.6508756 -2035536501.2071304
-1094376709.5820808 -1188259775.769674
-2811579158.32397 -46158705.08371061
-3835883997.705745 1147547483.974982
-3896588754.794884 2127717543.05125
-2958450913.6014085 2667895500.4721837
-1247568560.772736 2630114222.5386305
822056544.972487 2002862417.0532556
2729604173.051089 906393739.8291854
3987327705.4139776 -429920285.8673134
4259893783.8946524 -1711223438.3247015
3454162105.7432165 -2648147430.1230984
1746875684.4798093 -3016853856.260018
-453514483.7387816 -2716137508.9240017
-2601747212.573746 -1792483422.3927953
-4154674948.3462124 -436227532.78999114
-4701157077.827283 1058147716.4381529
-4076357872.7314477 2354597639.2197967
-2401441996.34027 3151701548.433748
-67684396.27572763 3253883911.473766
2357684455.2105885 2616804759.7766576
4265901660.194445 1365892527.5140731
5162264233.947624 -229945814.33545098
4789835973.557192 -1814202675.7896233
3203835154.8001237 -3022551560.9485445
763021841.889807 -3567251877.436092
-1945666936.1293583 -3305245222.8088155
-4255441353.322468 -2276127569.296174
-5572472263.462788 -697716933.9231145
-5538617537.161778 1077788691.4179797
-4119480713.456273 2645518519.0775237
-1629053885.1991982 3635483119.078822
1345299901.7668116 3805245965.622265
4074046508.988854 3095197294.1383314
5871522753.443528 1649972060.3266768
6258343685.600471 -210015664.24659032
5096992772.780531 -2060045385.583969
2632776837.802679 -3466701501.7800827
-559657070.2830944 -4091220023.012437
-3703692397.2791634 -3769492237.6145515
-6013975234.504279 -2557382326.225443
-6892622070.183769 -720753938.558523
-6075862155.514823 1320902715.8043265
-3724003618.762497 3089262021.520242
-380389800.41819334 4161031446.9303503
3146511958.315374 4268487224.8671465
5981032157.227645 3366831124.6039977
7396987490.582872 1650901829.8794205
7002274740.467262 -487660871.0203842
4848044379.576498 -2546886687.8752446
1429188418.4778647 -4034181725.676704
-2431802111.621073 -4583137410.603173
-5775256045.806556 -4045087002.498168
-7753198463.247336 -2529061872.7056723
-7833511827.170331 -381778615.3248386
-5951120311.515329 1891399657.5245035
-2531925844.7516603 3744920580.329717
1601269972.6820045 4724164453.0694
5421379804.554732 4576697400.316717
7960851095.803972 3319316566.166219
8548828285.477623 1238483293.5417325
6991593144.438659 -1174005699.6619344
3636580873.399726 -3336269898.925556
-707668226.883988 -4716480485.434297
-4960288168.331189 -4964772145.086148
-8040599743.435876 -4001871140.125081
-9143944726.514542 -2044975766.1940298
-7942598755.653439 441542831.38086784
-4698647630.127752 2853207352.989063
-195803842.65817153 4594605926.346915
4441140270.389795 5224986176.070688
8030513612.674959 4571523590.535678
9630054880.46944 2776292061.6917186
8792782716.070917 268576349.1963354
5683511949.386683 -2338733987.6788
1059335405.7896295 -4396699055.889728
-3918524332.54228 -5382745157.588238
-7972150882.550911 -5034816942.151734
-10035960266.753838 -3420263140.977735
-9540027381.68536 -926860683.490079
-6566622029.285831 1830784124.24527
-1839526853.4919221 4160807950.2948213
3441739497.8302536 5468094612.639761
7913093553.245234 5406630117.965193
10392804859.084738 3973589026.177108
10198259550.864397 1513279331.286067
7332501406.626511 -1361596012.7029057
2500092992.0081167 -3923153054.5315723
-3060430298.781875 -5511386606.535064
-7902965829.634746 -5706548673.72384
-10736126853.693333 -4438720952.222676
-10777833995.014761 -2014723096.22486
-7970675363.374828 956928923.0785825
-3010729923.5947857 3715139380.6817718
2820248140.622883 5543327126.753208
7985656929.177264 5954383093.745691
11098007209.512041 4822229868.633117
11292907759.24888 2421568041.4443398
8468948698.601579 -638339174.1664267
3339030861.2986813 -3564789542.8375754
-2759129549.545159 -5589543572.677713
-8200454523.094416 -6168345070.980717
-11504134516.800055 -5129692338.57671
-11747972605.550228 -2726727031.9445815
-8815136702.43542 423474412.7508509
-3453503806.070921 3495314859.5592337
2917481941.2876644 5672189458.202731
8578359102.348302 6363306990.818287
11970687967.786036 5364294401.824165
12137425957.360144 2921492827.9328437
8981378721.427828 -329694228.6047105
3318757672.014889 -3526314842.376417
-3327533311.9169 -5807443898.56018
-9140972334.50282 -6546999347.926183
-12500517154.905245 -5523910421.152978
-12440755264.618681 -2994391086.1944423
-8928994321.878365 373664843.3243176
-2892604027.1898394 3674295399.3485794
4024183442.960624 6005795572.3758
9897425628.699108 6718480778.36223
13069954608.5407 5597502431.094921
12613367871.428146 2928497631.585871
8605625475.390985 -572722512.4282867
2127087153.3657722 -3949802039.7167573
-5027057138.973137 -6266677068.530393
-10837054234.553299 -6867828995.679861
-13636297469.318428 -5566413983.800302
-12587872653.267 -2701714302.8354235
-7940715130.468931 943906707.6735111
-971649226.8479633 4358429426.955361
6347106493.914156 6580854553.761695
11920053541.747318 6970852578.316845
14118572397.240623 5398626877.534555
12267211098.19114 2286355687.0213933
6847313799.12669 -1501813314.7350414
-611963066.4638748 -4895026737.7491665
-7963902236.071007 -6921508069.889654
-13067275163.892258 -6987862447.715013
-14399286561.022617 -5052724373.8437195
-11526041768.503147 -1651000359.186765
-5240394312.562259 2253485202.337141
2643626677.5064588 5537387274.019328
9817430628.606451 7243971200.964162
14145884118.179302 6860022400.739479
14313301531.436953 4476733343.239164
10222598842.252893 768805810.8599232
3046362103.3290844 -3190758984.2394795
-5100746703.494671 -6241793865.359681
-11778700260.13234 -7476629150.576869
-14964369609.922129 -6512867199.554505
-13656770497.008785 -3614114299.371749
-8205336942.067702 376393783.2574042
-225437793.58948487 4280567440.314559
7879389524.724598 6930877782.979915
13632409578.587423 7521039303.491154
15250776891.747978 5855294388.165452
12196676349.730074 2415585976.236368
5363181186.778583 -1774260663.6921086
-3167399641.3041077 -5449230408.306346
-10766734260.162912 -7486893117.837882
-15062584514.252533 -7251096619.722655
-14686284916.753752 -4795694249.501682
-9712992564.337854 -855447184.8272251
-1664970313.9097722 3367468205.0281205
6947667802.894012 6569175764.40053
13406941485.821375 7749186675.190423
15648806010.491873 6524490920.403264
12924851616.140783 3259146913.0817504
6068489862.921132 -1039398226.7509257
-2760877858.1978397 -5028791108.915237
-10735436057.75043 -7447133698.903921
-15284331932.774412 -7520215932.285262
-14904297509.780367 -5206313815.398533
-9689113375.28042 -1227632485.3101985
-1304008271.2139215 3155001783.3194566
7533025435.659302 6539301407.622676
13924708800.980791 7828172546.471781
15751800190.720901 6592410774.152893
12381794114.192017 3217268117.2265167
4900678363.836704 -1212508685.9243553
-4226931553.9810247 -5255490451.785051
-11958822928.668036 -7583280519.112505
-15696397076.923473 -7420976524.571271
-14159449999.553587 -4807992539.386859
-7839892791.982793 -598032074.0338801
1144679378.7319188 3816561800.8504663
9747816229.715307 6960560698.536281
15027381998.710749 7773246147.776582
15155860729.826792 5969630743.733637
10066615364.1378 2146940208.2876225
1496930835.9852903 -2405497986.811614
-7593266056.909779 -6138793640.895809
-14036479832.424574 -7773107446.951836
-15564666540.597351 -6735686319.881551
-11622539741.013496 -3374881539.6925006
-3580477835.1502657 1154035059.6680794
5721560544.448607 5278436726.07278
12979679682.562626 7555870400.163235
15588541813.607027 7178982538.520397
12599676074.103447 4272263098.37709
5071425249.209196 -144002985.6477834
-4280820376.1255994 -4503348855.251883
-12060312432.11973 -7248457966.586434
-15416921118.866863 -7387342783.745917
-13108514001.555115 -4862853861.360113
-5970946775.581239 -581284021.168231
3362177340.6531305 3904033444.910137
11421602558.323051 6953186683.09926
15189718920.188877 7441736633.720873
13240024840.469973 5182035674.9197035
6298604361.541786 1005123374.1794848
-3012029301.529915 -3537006301.9875526
-11148300066.282885 -6743648938.267635
-14988075209.202026 -7403910836.63787
-13048338950.103634 -5261464356.967803
-6066598796.878404 -1122840705.7310681
3251331999.7309895 3434653793.5024743
11265694805.098034 6660407006.50917
14830891505.813425 7306524579.357703
12529253657.321068 5114445063.169771
5264733758.508995 931707886.2498893
-4074947722.616366 -3606727412.2334733
-11746372063.257265 -6711074213.984151
-14657637240.575678 -7146493575.687196
-11618209495.737236 -4730790093.670923
-3858725833.7488704 -424250248.7473893
5452976510.894283 4044306689.4866457
12486251400.714092 6863771091.940211
14323559808.041481 6878697691.379438
10193046022.791096 4073708332.7917185
1811399787.8869784 -406052527.65630364
-7301262961.211818 -4709777076.986304
-13292029902.546711 -7042444327.321228
-13603092228.283867 -6417299560.35165
-8091382342.070709 -3085320003.1653876
882654916.6785786 1552610646.0940638
9442399331.558851 5523131014.297946
13859799825.173079 7118278439.043048
12193204225.479494 5636987790.853692
5160823720.718459 1705804294.763833
-4131264688.4247737 -2969818086.0167
-11549152527.098827 -6338802778.222177
-13763470758.284382 -6902039917.661387
-9762097252.92067 -4391255029.095156
-1347809014.1997895 88730794.50499095
7650864075.980259 4531922533.96385
13103671277.973698 6922908486.349861
12480948027.134768 6154315674.142022
6061070876.817946 2557065717.8895464
-3169605439.2343855 -2228816609.203045
-10871746128.629202 -5985154140.272393
-13395038054.54363 -6944583253.712974
-9525128691.478264 -4631441794.237195
-1100134978.4098835 -113825979.92739472
7815925878.627925 4468950347.517395
12897651452.975378 6914421350.764909
11646440641.82965 6018470285.016243
4670435945.815639 2185796597.402421
-4583950030.842475 -2731358218.80587
-11504469203.90516 -6315289969.805529
-12612458948.381628 -6769323021.089429
-7335877446.595322 -3832094661.213655
1642644449.158198 1048694955.5575485
9721682667.148441 5414940548.500647
12732721523.12669 7027650929.899658
9104722899.608492 5023558108.709127
738071850.1688225 403401826.3838791
-7953385971.798917 -4446426366.373479
-12352904080.686401 -6973897307.144176
-10109256904.973785 -5810150372.86565
-2438256430.6302366 -1534180637.3146307
6485524456.050471 3587023331.8133564
11772110049.9415 6780729809.793056
10519525946.780325 6278255144.8752575
3436767713.187668 2310338116.571047
-5488676347.533316 -2958504602.704812
-11209117449.544712 -6590402249.901108
-10483371568.011501 -6513479974.168017
-3756719405.453188 -2725737279.833879
5046181860.778982 2641812463.5457582
10777278328.519436 6498551528.963593
10085498962.20575 6572665189.1120615
3429990437.9809155 2775362982.9052243
-5163811984.314689 -2684314805.1313076
-10488090339.152815 -6551252409.647167
-9331816015.32261 -6466085624.138847
-2471511618.766419 -2433368947.937117
5780226116.600545 3109478141.9034576
10236216212.89136 6730745444.932807
8135061943.560047 6135512018.612972
900620094.4651052 1649775500.6495032
-6732499705.77071 -3899216873.179462
-9796283749.515392 -6937103257.600733
-6353867558.150039 -5450677567.270069
1202566919.010017 -367604118.63180554
7730459324.4172125 4964595962.930844
8830054732.955091 6958100383.829205
3861613132.901745 4218380975.7215967
-3606550993.3291254 -1422848964.5410275
-8297632617.074777 -6075768799.706197
-6960049985.813045 -6455934912.563051
-708993280.0089359 -2246807287.5551705
5807902622.673826 3576237734.8685308
7815413734.122893 6793003476.437664
3964425943.243761 5006817686.730793
-2678070987.0140834 -507471898.17518747
-6981983469.649745 -5631488671.24022
-5729091373.633751 -6449628955.006578
-98314172.93739583 -2281448640.1917267
5308682474.2345495 3665214335.703256
6192875548.029533 6695034329.189396
2032839485.064778 4339306620.473041
-3532678743.4176955 -1544191159.834873
-5818426907.076579 -6140935991.351641
-3064321449.835946 -5588773639.193553
2106801511.0376434 -295723254.8334215
5075930005.229549 5239385311.485943
3359359424.254394 6186053002.864003
-1211611102.9026983 1648726735.43007
-4293053003.442352 -4360533614.791258
-3141402938.146213 -6372548506.546095
844828723.419997 -2469173603.8376765
3622960181.2137346 3751239569.4301744
2581072443.1315136 6365214256.46555
-907110588.3014649 2778405473.904941
-3062568784.5526214 -3549248476.564167
-1766296388.153153 -6290998012.516689
1248689064.2266605 -2585575891.3028026
2485343516.312205 3806021738.658351
726383041.8841302 6147375386.703181
-1652568365.2507887 1843060292.7696602
-1682079698.3123338 -4481655063.646277
474731100.68520576 -5768021298.025546
1790585789.601094 -456312602.2334885
448120695.256226 5378904263.362486
-1584357547.6461682 4803328845.227063
-1213516440.5092435 -1607041227.6680424
1201037961.2554078 -6013305301.571318
1988345765.1939669 -2789840914.129666
-449948553.1199349 4043557881.850969
-2627069501.5561867 5506389529.881227
-774197336.3078531 -501940321.6132468
2808179406.1975255 -5799959494.3956375
2282415395.7102723 -2835137811.8966823
-2334175647.0156198 4255359309.303094
-3732198745.248683 4957674779.361393
1287277883.1826506 -1952975369.042998
4865674513.775914 -5751466045.736482
46187634.9269301 -206560620.7836058
-5654416807.701246 5643469184.2177305
-1322828337.2848516 1758090165.755921
6284919562.326855 -5196636348.402182
2223393793.9053206 -2586916172.936669
-7050664803.920889 4855484787.656973
-2396771521.9454837 2715954570.381396
8174635381.121518 -4846712129.8887205
1303687957.6018548 -2107960765.7988267
-9472679968.07979 5108640662.426654
1852975407.0001419 585972679.6011707
9655212823.0018 -5113121798.902989
-7457220106.583907 1927508423.808043
-5496058693.698731 3646352460.547216
12614187081.138098 -4443627626.546567
-6189074840.043256 519122955.52416986
-6627530828.527174 3456457031.4482102
15304825020.603222 -4570154402.5573225
-16084531201.211277 3379773685.9110794
11810954385.216694 -1688842177.7696671
-6718163014.992948 560097206.0094988
3090152503.359566 -83381484.93906307
-1174462656.0511668 -33014808.3321695
372971548.7951679 30945196.937717564
-99449813.79930158 -13743740.560843095
22269933.328251347 4322086.271232984
-4171338.660488973 -1045304.3772829178
647780.5880331779 199130.98453200696
-82089.50473045355 -29863.410905679913
8246.23404095076 3450.5418981111793
-618.1733851761152 -290.0680080961645
28.35870405056841 14.3886352494344
-0.4218632658776013 -0.29689729074667076
