-1.510893584006940127e-01 -6.769196563511387099e-02
-1.502848819504003230e-01 -6.792151181819035266e-02
-1.557102667256126116e-01 -6.649572228255307138e-02
-1.356090853328648094e-01 -7.133484701962924945e-02
-1.792163684181672378e-01 -6.217488569807779614e-02
-1.285180168758268404e-01 -7.013921783917666242e-02
-1.442939869458542412e-01 -7.124678293724470701e-02
-1.672685973886368915e-01 -6.706363086913640081e-02
-1.417717767096985937e-01 -7.413866063913257531e-02
-1.167348509410574831e-01 -8.882831478685400406e-02
-1.336955517588385711e-01 -9.486659009862111192e-02
-1.698554511850885740e-01 -8.688337319536350301e-02
-1.847965809570475126e-01 -7.456134018280675957e-02
-1.715889447259729972e-01 -6.896739852410563310e-02
-1.548085166220891373e-01 -7.099268176533782282e-02
-1.573361389185825021e-01 -7.266521982620174902e-02
-1.785961181701868350e-01 -6.659923702147807489e-02
-2.000437275790221958e-01 -5.321647804984458441e-02
-2.047134941641685912e-01 -4.020480799538294486e-02
-1.908118418986507747e-01 -3.622085239297304776e-02
-1.704714116285905301e-01 -4.458536096033103441e-02
-1.584843705648478485e-01 -6.136246650345759251e-02
-1.615213383388940938e-01 -7.832402490542199336e-02
-1.751074197771737284e-01 -8.812663064242336197e-02
-1.886385855591906913e-01 -8.827481413324093917e-02
-1.935510237057229965e-01 -8.184802387783199351e-02
-1.889436103624337060e-01 -7.515371041830287702e-02
-1.816776618677082011e-01 -7.405672053897564833e-02
-1.817335153526681013e-01 -8.106454912099571308e-02
-1.960895781743844934e-01 -9.447342935078510695e-02
-2.246293907799674638e-01 -1.096446531216598019e-01
-2.599930699717679095e-01 -1.214743237993291952e-01
-2.910568823083373169e-01 -1.267433471831641012e-01
-3.080460742695769749e-01 -1.253192390794246047e-01
-3.067911160635672374e-01 -1.198524938639899395e-01
-2.903406856006976455e-01 -1.143137555897358187e-01
-2.674706881666938929e-01 -1.121452190153012368e-01
-2.489839523880250372e-01 -1.148463494719361433e-01
-2.434462287729836361e-01 -1.215195616868932765e-01
-2.540581718481765838e-01 -1.294515991973823610e-01
-2.777329055097353949e-01 -1.353947558324296307e-01
-3.065234268226761372e-01 -1.369773267672787787e-01
-3.307046865675695724e-01 -1.336915035522635853e-01
-3.422855967925831355e-01 -1.271087321425778682e-01
-3.377197051208207235e-01 -1.202872893270024862e-01
-3.189692242653324739e-01 -1.166248663021719062e-01
-2.926832367002905610e-01 -1.185825839388543468e-01
-2.678877302698481899e-01 -1.267324536437197391e-01
-2.530175588527753816e-01 -1.394414697219040211e-01
-2.532436591826619510e-01 -1.532984832422710775e-01
-2.689100793731052375e-01 -1.641456752505705552e-01
-2.954924798495937033e-01 -1.683999790778395456e-01
-3.250131589944988963e-01 -1.642643987622712798e-01
-3.484712992733786097e-01 -1.524768174974620583e-01
-3.585501626186516910e-01 -1.363656032564332099e-01
-3.518425513351278733e-01 -1.211774852954076304e-01
-3.300140316070134250e-01 -1.128322523388787940e-01
-2.995820142253708407e-01 -1.164019248495598569e-01
-2.704021538147960424e-01 -1.346804969142538499e-01
-2.532266266969471769e-01 -1.671867310380499572e-01
-2.569381219805640382e-01 -2.098427275818220139e-01
-2.861084608238648741e-01 -2.554195802603923537e-01
-3.394419032589053864e-01 -2.946717913692056268e-01
-4.094675684900289103e-01 -3.179513379631485614e-01
-4.835355936055113490e-01 -3.169784900988994458e-01
-5.459341218498048320e-01 -2.864397959692865925e-01
-5.806986559744528043e-01 -2.251137692858212191e-01
-5.745715970939627715e-01 -1.363183628096584499e-01
-5.195507287552891817e-01 -2.761027947876067493e-02
-4.145683003930725197e-01 9.020864460394055484e-02
-2.660122913759286334e-01 2.045969670433116783e-01
-8.701742203972047396e-02 3.030373642853755323e-01
1.043251485630862785e-01 3.747716571662957352e-01
2.875171499919529916e-01 4.122370722025276435e-01
4.425370510108744271e-01 4.120033061511922945e-01
5.525874172913866067e-01 3.750881506328576642e-01
6.062958225889025776e-01 3.066447700183116964e-01
5.990685429093604020e-01 2.150998527411382422e-01
5.334369787056281176e-01 1.109017108982119637e-01
4.184139202026448401e-01 5.084198323669928375e-03
2.680107582018352308e-01 -9.214118199304767443e-02
9.918283271910074972e-02 -1.725724753633555153e-01
-7.046395955533651945e-02 -2.308368104292316536e-01
-2.248772660454231020e-01 -2.647688483254498348e-01
-3.513706380035776511e-01 -2.753288090244009334e-01
-4.418479266458348875e-01 -2.661299247747577756e-01
-4.933056163196863908e-01 -2.426595537424331983e-01
-5.076450404854834231e-01 -2.113492859007843061e-01
-4.908619810457119925e-01 -1.786222923552704400e-01
-4.518003602900047544e-01 -1.500533158666259304e-01
-4.006791972215855702e-01 -1.297403143141501736e-01
-3.476086919815284948e-01 -1.199522442815090656e-01
-3.012979845061317663e-01 -1.210605679808937213e-01
-2.681043646819075144e-01 -1.317426533092228569e-01
-2.515066731816735235e-01 -1.493871556630596842e-01
-2.520274585539636347e-01 -1.706293514123279065e-01
-2.675622070267066888e-01 -1.919269470325681015e-01
-2.940213204597363905e-01 -2.100941243451637241e-01
-3.261629992932701949e-01 -2.227221718905199044e-01
-3.584838453181423690e-01 -2.284466593548662161e-01
-3.860389829295402531e-01 -2.270383389532474039e-01
-4.050902165997720128e-01 -2.193256495358985869e-01
-4.135131382361904584e-01 -2.069769138286740862e-01
-4.109352308722500347e-01 -1.921875391449122117e-01
-3.986180232107452426e-01 -1.773242902799384013e-01
-3.791238722409934203e-01 -1.645778853353944693e-01
-3.558356052917809875e-01 -1.556738867844697227e-01
-3.324119100586672149e-01 -1.516696213412622452e-01
-3.122555168321237695e-01 -1.528634332737122681e-01
-2.980620153036472875e-01 -1.588109054441920742e-01
-2.915114960213952000e-01 -1.684427563691302532e-01
-2.931123698705698777e-01 -1.802540780340103621e-01
-3.022270101299684986e-01 -1.925385659989836684e-01
-3.172395189432230533e-01 -2.036322913907344379e-01
-3.358407485157546835e-01 -2.121297514413752472e-01
-3.553846048785326284e-01 -2.170552952761777565e-01
-3.732569222834369871e-01 -2.179628197040940074e-01
-3.872156909741834019e-01 -2.149621406979358718e-01
-3.956556341984958647e-01 -2.086717909471464127e-01
-3.977733321431886626e-01 -2.001102080877919798e-01
-3.936193319943541713e-01 -1.905434788206739061e-01
-3.840393701976924645e-01 -1.813132759578176545e-01
-3.705178842872243750e-01 -1.736624569328728274e-01
-3.549544649086864290e-01 -1.685871624148751746e-01
-3.394052002010435332e-01 -1.667277795553361031e-01
-3.258180226211721542e-01 -1.683057065275259390e-01
-3.158010375959051097e-01 -1.731187051142168698e-01
-3.104466331831352011e-01 -1.805860147398648807e-01
-3.102270514597118556e-01 -1.898340245949897975e-01
-3.149710734510008381e-01 -1.998137354555198086e-01
-3.239208447549626335e-01 -2.094335284720435786e-01
-3.358507973779406020e-01 -2.176845695547987847e-01
-3.492372182551878312e-01 -2.237569769412999787e-01
-3.624526400077327515e-01 -2.271209771192819749e-01
-3.739590968944094262e-01 -2.275759446308972256e-01
-3.824851531886694911e-01 -2.252589936704965656e-01
-3.871559419240037103e-01 -2.206132322683410918e-01
-3.875777581939138239e-01 -2.143262640934918695e-01
-3.838579574069340694e-01 -2.072446565327583368e-01
-3.765726022467796308e-01 -2.002731660130286084e-01
-3.666780950500412861e-01 -1.942760194031752097e-01
-3.553905110366895048e-01 -1.899843365476773793e-01
-3.440346897049031405e-01 -1.879258528421119123e-01
-3.338996959303909828e-01 -1.883787906349344288e-01
-3.260939541130691843e-01 -1.913543769314772214e-01
-3.214321021200479689e-01 -1.966082532089714896e-01
-3.203623978579325238e-01 -2.036822339260915826e-01
-3.229273392992349501e-01 -2.119603367745450384e-01
-3.287805088498322870e-01 -2.207452621225625689e-01
-3.372345143689470248e-01 -2.293345965050464230e-01
-3.473490731949112065e-01 -2.370969572413965110e-01
-3.580396629759198257e-01 -2.435354014930950772e-01
-3.681964183460635365e-01 -2.483358169480907596e-01
-3.768020448409450940e-01 -2.513897717013054978e-01
-3.830341866684768282e-01 -2.528025377105276861e-01
-3.863460713058200491e-01 -2.528698071255956470e-01
-3.865111878730601025e-01 -2.520425605991969409e-01
-3.836408773765235258e-01 -2.508736288008676096e-01
-3.781597623692014576e-01 -2.499571762916733275e-01
-3.707572866339106654e-01 -2.498648026503025588e-01
-3.623076884175420731e-01 -2.510873171530921266e-01
-3.537810435557899313e-01 -2.539845034652462030e-01
-3.461446327680597901e-01 -2.587507969621248849e-01
-3.402637475545423063e-01 -2.653955449483504370e-01
-3.368251887989347493e-01 -2.737438705937810801e-01
-3.362699070555973946e-01 -2.834533722074818463e-01
-3.387573094312423261e-01 -2.940464497671673727e-01
-3.441570101088875511e-01 -3.049534271370400451e-01
-3.520620037990037643e-01 -3.155630493307761131e-01
-3.618381507691496579e-01 -3.252760828853095698e-01
-3.726800079775045016e-01 -3.335550561063032049e-01
-3.836914370695784227e-01 -3.399642115276213516e-01
-3.939651032797304997e-01 -3.442048241230190042e-01
-4.026656185522209386e-01 -3.461315348711004880e-01
-4.090986680328266845e-01 -3.457562466073481611e-01
-4.127675566315204825e-01 -3.432399000419646407e-01
-4.134112298080566128e-01 -3.388691232104800166e-01
-4.110195039075345003e-01 -3.330234040358181491e-01
-4.058229821178725993e-01 -3.261377444475438425e-01
-3.982632536794290523e-01 -3.186587336956669958e-01
-3.889521555836211175e-01 -3.110074636634732603e-01
-3.786059397399559323e-01 -3.035400530223281157e-01
-3.679797218277167103e-01 -2.965222319605032575e-01
-3.578021992267982343e-01 -2.901100236922718456e-01
-3.487094520792854979e-01 -2.843429765834665779e-01
-3.411951593423923068e-01 -2.791489442969853907e-01
-3.355680023136513035e-01 -2.743590329108257508e-01
-3.319340846954769719e-01 -2.697317325596267912e-01
-3.301937664421659702e-01 -2.649818928781442762e-01
-3.300572137010341911e-01 -2.598175168681496894e-01
-3.310751410764983804e-01 -2.539706273364890077e-01
-3.326850703548328569e-01 -2.472298397860592245e-01
-3.342659927801111541e-01 -2.394673431731894064e-01
-3.351959275863102827e-01 -2.306557134237194329e-01
-3.349081498997732442e-01 -2.208761924294896650e-01
-3.329445902618917152e-01 -2.103198685809637425e-01
-3.289935332080097807e-01 -1.992743393464574408e-01
-3.229242269427756717e-01 -1.881056981951496343e-01
-3.147926353752798501e-01 -1.772322182793986400e-01
-3.048449265459480251e-01 -1.670914384610115988e-01
-2.934961582141378256e-01 -1.581085771729668077e-01
-2.812967449245361018e-01 -1.506610763575933765e-01
-2.688938342100852807e-01 -1.450512317569913334e-01
-2.569785150662217688e-01 -1.414808455019484768e-01
-2.462304899639210509e-01 -1.400323727721014544e-01
-2.372705918216831411e-01 -1.406656039714470063e-01
-2.306091640236693219e-01 -1.432138731903908335e-01
-2.266106092244841164e-01 -1.473978672764924280e-01
-2.254632605689104730e-01 -1.528423687841955758e-01
-2.271682377556863697e-01 -1.591031645534216332e-01
-2.315383385596760935e-01 -1.656975673703547647e-01
-2.382137983573019702e-01 -1.721370127704054120e-01
-2.466872385028945347e-01 -1.779612901121807866e-01
-2.563428910195761357e-01 -1.827693141074318017e-01
-2.664997700519048385e-01 -1.862466433838109447e-01
-2.764629631801057696e-01 -1.881853080753367879e-01
-2.855696396191833020e-01 -1.884975983898689589e-01
-2.932369924927432092e-01 -1.872189014049019939e-01
-2.990026498671257138e-01 -1.845055141351831796e-01
-3.025512042577350735e-01 -1.806191654429806503e-01
-3.037395246472517352e-01 -1.759100475588762647e-01
-3.025977502539973218e-01 -1.707889255557494268e-01
-2.993279150030433433e-01 -1.656994038072788777e-01
-2.942833199981234049e-01 -1.610846535339729990e-01
-2.879414050659513391e-01 -1.573570344654813269e-01
-2.808691005724667233e-01 -1.548704879959433567e-01
-2.736785426273172783e-01 -1.538963059595514216e-01
-2.669841753480061142e-01 -1.546032152329870901e-01
-2.613583512042246260e-01 -1.570482310435166173e-01
-2.572923748587985227e-01 -1.611729101467686276e-01
-2.551611902667424991e-01 -1.668079986527243042e-01
-2.551990501946925782e-01 -1.736849671200172140e-01
-2.574864677745022368e-01 -1.814543632989260580e-01
-2.619434224466872241e-01 -1.897105512407115946e-01
-2.683363881288398645e-01 -1.980173064553155116e-01
-2.763005268038723483e-01 -2.059375774281501648e-01
-2.853618843723069731e-01 -2.130617197678917607e-01
-2.949705334192487816e-01 -2.190334284736396020e-01
-3.045416326434965404e-01 -2.235719164834640837e-01
-3.134939161978114730e-01 -2.264906614008298236e-01
-3.212904243199570242e-01 -2.277077489207907368e-01
-3.274722637306449191e-01 -2.272480478644966773e-01
-3.316911917796174780e-01 -2.252435424746962733e-01
-3.337326486954607097e-01 -2.219223174824815625e-01
-3.335251848597270419e-01 -2.175907991622142434e-01
-3.311504468071332918e-01 -2.126181543656231465e-01
-3.268329272628353044e-01 -2.074069330169809877e-01
-3.209232291608526411e-01 -2.023697205284482326e-01
-3.138792770984913383e-01 -1.979039562544467057e-01
-3.062312015368596207e-01 -1.943629276659145366e-01
-2.985489310118451534e-01 -1.920384513820189987e-01
-2.914036055993238228e-01 -1.911403069707972024e-01
-2.853303988870440899e-01 -1.917843073440053392e-01
-2.807950703433235717e-01 -1.939855590576826105e-01
-2.781638116342290967e-01 -1.976593379833589126e-01
-2.776786789997748306e-01 -2.026263306766417360e-01
-2.794452859977437087e-01 -2.086243827130259965e-01
-2.834210558601470975e-01 -2.153253076455485249e-01
-2.894249721655947627e-01 -2.223562591883020134e-01
-2.971425175785820105e-01 -2.293220218485043926e-01
-3.061501229665032353e-01 -2.358302503069067690e-01
-3.159390783565594885e-01 -2.415142323683300007e-01
-3.259471032186960215e-01 -2.460558071279085324e-01
-3.355963913431763701e-01 -2.492050185407442831e-01
-3.443238957454805571e-01 -2.507937028303834359e-01
-3.516206303972350677e-01 -2.507459729866594600e-01
-3.570605595407467803e-01 -2.490822977491436996e-01
-3.603267854393932823e-01 -2.459187872564793098e-01
-3.612308940785394773e-01 -2.414583471278340387e-01
-3.597263148416817713e-01 -2.359799195471138922e-01
-3.559056728540629377e-01 -2.298213232545983364e-01
-3.500025814077514230e-01 -2.233597703034209681e-01
-3.423720962516231259e-01 -2.169887507121433246e-01
-3.334730466619293399e-01 -2.110966834293895589e-01
-3.238364257541448965e-01 -2.060422680860704570e-01
-3.140389887305545802e-01 -2.021354012499566588e-01
-3.046653247246772778e-01 -1.996204952083101281e-01
-2.962752707968684951e-01 -1.986592687754565045e-01
-2.893662791716044569e-01 -1.993231300002065443e-01
-2.843492335812845551e-01 -2.015902930933259340e-01
-2.815200547246488605e-01 -2.053455977166873669e-01
-2.810407706708969999e-01 -2.103870984084501017e-01
-2.829319756511127770e-01 -2.164366429869518660e-01
-2.870663546033339619e-01 -2.231575628161792391e-01
-2.931784487284810337e-01 -2.301699268878531213e-01
-3.008742623867868837e-01 -2.370742798578616417e-01
-3.096554069995719471e-01 -2.434719910238343221e-01
-3.189452164732301531e-01 -2.489870601687627916e-01
-3.281192338964793453e-01 -2.532869151243297146e-01
-3.365420010829153763e-01 -2.561009065309927113e-01
-3.435983765484190156e-01 -2.572330149687938605e-01
-3.487333476854749259e-01 -2.565748948109108363e-01
-3.514778692958865358e-01 -2.541090978200715722e-01
-3.514809273443564863e-01 -2.499127980984003072e-01
-3.485274559095462021e-01 -2.441508397666898311e-01
-3.425515890664015406e-01 -2.370681072268464029e-01
-3.336450016363693982e-01 -2.289781270648680866e-01
-3.220532042639989712e-01 -2.202442323141519387e-01
-3.081656910692570639e-01 -2.112623767438290001e-01
-2.924970932202316520e-01 -2.024395145705829846e-01
-2.756628837935667931e-01 -1.941725887182210730e-01
-2.583514822314731951e-01 -1.868294554340706182e-01
-2.412861561038718572e-01 -1.807268373552399221e-01
-2.251939244171825560e-01 -1.761197885724799239e-01
-2.107663775161898734e-01 -1.731830345213412892e-01
-1.986254208029901436e-01 -1.720058680459189970e-01
-1.892948816481596630e-01 -1.725875509938867569e-01
-1.831696142045488584e-01 -1.748372947486098727e-01
-1.804994849692830305e-01 -1.785803632291666498e-01
-1.813746600973766276e-01 -1.835660530457419726e-01
-1.857234749687422248e-01 -1.894836568600797577e-01
-1.933113271873886096e-01 -1.959773782238045381e-01
-2.037547744390733329e-01 -2.026641509603408220e-01
-2.165428304254897740e-01 -2.091574090867649172e-01
-2.310566233544102954e-01 -2.150846241219347421e-01
-2.466045585120621442e-01 -2.201072361804377042e-01
-2.624561814897008460e-01 -2.239410825559172702e-01
-2.778743481556876782e-01 -2.263689362449570752e-01
-2.921582074070099844e-01 -2.272555822933139680e-01
-3.046738257640100311e-01 -2.265539445570374510e-01
-3.148895767194984097e-01 -2.243096803097314740e-01
-3.223990293711884170e-01 -2.206588617713848011e-01
-3.269462291542257759e-01 -2.158253367507106391e-01
-3.284379094460113113e-01 -2.101080372050649070e-01
-3.269497190517103857e-01 -2.038690576576376867e-01
-3.227223261072739158e-01 -1.975154036428884430e-01
-3.161541558591046686e-01 -1.914803385761914001e-01
-3.077814006740475228e-01 -1.862013210286265208e-01
-2.982525777597214711e-01 -1.820987447936848191e-01
-2.882988006767239764e-01 -1.795548016463654195e-01
-2.786970763092694869e-01 -1.788915670497447374e-01
-2.702339374168717390e-01 -1.803564353251667918e-01
-2.636632946800110955e-01 -1.841034505593145687e-01
-2.596712002468264946e-01 -1.901854173673912241e-01
-2.588368548525568635e-01 -1.985455036762111825e-01
-2.616001625139119935e-01 -2.090155863326325081e-01
-2.682385986959465174e-01 -2.213206350517928078e-01
-2.788434284401967722e-01 -2.350837133419870772e-01
-2.933102535001464450e-01 -2.498398155602852277e-01
-3.113335461108444058e-01 -2.650514830609776440e-01
-3.324135671909086986e-01 -2.801276465245965408e-01
-3.558682971193961042e-01 -2.944460714433639326e-01
-3.808571619025541422e-01 -3.073777213805641284e-01
-4.064078202101154558e-01 -3.183096483365249751e-01
-4.314532992351181595e-01 -3.266713245165134838e-01
-4.548707724336417679e-01 -3.319557380181987205e-01
-4.755240056570247398e-01 -3.337413886656922513e-01
-4.923107033702805446e-01 -3.317118362077376981e-01
-5.042049298116417777e-01 -3.256672275179657849e-01
-5.102990509025431276e-01 -3.155368885629433739e-01
-5.098439125043043862e-01 -3.013843527744690665e-01
-5.022803551114372045e-01 -2.834085766178990329e-01
-4.872693535767471107e-01 -2.619390751378820048e-01
-4.647056527214929456e-01 -2.374275769213451959e-01
-4.347336240317149492e-01 -2.104358465320924632e-01
-3.977458876831800327e-01 -1.816171326250348994e-01
-3.543778831846178812e-01 -1.516971368800203446e-01
-3.054893448242105292e-01 -1.214505695005562991e-01
-2.521434283897653894e-01 -9.167663563284338124e-02
-1.955724573441969261e-01 -6.317355084013077937e-02
-1.371422726027033967e-01 -3.671459010855615546e-02
-7.830676249934513666e-02 -1.302162088667865869e-02
-2.056616397056568180e-02 7.256430219855003472e-03
3.458313715711090752e-02 2.356291947928905450e-02
8.569501480765501222e-02 3.545008030712441111e-02
1.314187495351296919e-01 4.259443785585063924e-02
1.705425223417094405e-01 4.480227999542538142e-02
2.020297622475141497e-01 4.201702896925513936e-02
2.250520355911848902e-01 3.431845618163282402e-02
2.390114153048716050e-01 2.191704250333979809e-02
2.435595894647702153e-01 5.147743480906550456e-03
2.386060279909748283e-01 -1.554310036867659513e-02
2.243163013857957244e-01 -3.961291749209350233e-02
2.011058281146594628e-01 -6.644169947670909571e-02
1.696246879001479246e-01 -9.535058249906602779e-02
1.307317140693012025e-01 -1.256235221954724868e-01
8.546721495213147057e-02 -1.565312979859522502e-01
3.501809428755544434e-02 -1.873502343465053566e-01
-1.932204950132828877e-02 -2.173853029658857627e-01
-7.619165122601107010e-02 -2.459881687611336354e-01
-1.342032032387688867e-01 -2.725747300708897258e-01
-1.919888627614353971e-01 -2.966404746644809021e-01
-2.482358449876463369e-01 -3.177715669757770756e-01
-3.017255743795457801e-01 -3.356531538004245419e-01
-3.513682735738443697e-01 -3.500748961646426571e-01
-3.962258791453975304e-01 -3.609318814558091781e-01
-4.355402957703926603e-01 -3.682234400133700403e-01
-4.687454108912805228e-01 -3.720492298203618153e-01
-4.954760889688485381e-01 -3.725987532382730727e-01
-5.155721602324428998e-01 -3.701427487355245516e-01
-5.290720877572220315e-01 -3.650220338158968736e-01
-5.362058936914522178e-01 -3.576312740280825908e-01
-5.373738303313692066e-01 -3.484058168523163079e-01
-5.331301844827730507e-01 -3.378045626068205132e-01
-5.241562838017779224e-01 -3.262963876178078260e-01
-5.112315772095421540e-01 -3.143436253168589434e-01
-4.952044198012713894e-01 -3.023891964396411280e-01
-4.769626648902557386e-01 -2.908431629861594758e-01
-4.574014168832130078e-01 -2.800724672758155842e-01
-4.373932813695874944e-01 -2.703911918669372749e-01
-4.177616379871489372e-01 -2.620551611477772713e-01
-3.992577746039313036e-01 -2.552556119806649870e-01
-3.825370005722116828e-01 -2.501187947059352878e-01
-3.681453894445241848e-01 -2.467058792198188466e-01
-3.565050807031956426e-01 -2.450129113017586180e-01
-3.479097125229088650e-01 -2.449781218237547242e-01
-3.425199668994475810e-01 -2.464863959824649953e-01
-3.403661975012101104e-01 -2.493761637351642191e-01
-3.413559575973034721e-01 -2.534476787536272258e-01
-3.452830888605816217e-01 -2.584733172126615353e-01
-3.518419179421136689e-01 -2.642063669068684395e-01
-3.606450646128454007e-01 -2.703901171339883058e-01
-3.712402444216620356e-01 -2.767688487711569834e-01
-3.831306981006418755e-01 -2.830947206670408334e-01
-3.957954896605057615e-01 -2.891371702603387495e-01
-4.087107295071912838e-01 -2.946895578715318931e-01
-4.213679601982410206e-01 -2.995754492269019353e-01
-4.332911115011461312e-01 -3.036516578563820956e-01
-4.440543817018408057e-01 -3.068134704024362280e-01
-4.532940326175221579e-01 -3.089943040560053089e-01
-4.607183132676925252e-01 -3.101684528202141022e-01
-4.661155115613732636e-01 -3.103469334242777156e-01
-4.693587598440237540e-01 -3.095783916376437239e-01
-4.704061391570242834e-01 -3.079434844902250168e-01
-4.692977556918451754e-01 -3.055530540626446023e-01
-4.661531772747721791e-01 -3.025408945947955508e-01
-4.611597533578793984e-01 -2.990588356561296735e-01
-4.545681556408208701e-01 -2.952736339527911036e-01
-4.466776356453684982e-01 -2.913568416177784171e-01
-4.378233397470753241e-01 -2.874832181410851839e-01
-4.283654295550882174e-01 -2.838221813965920437e-01
-4.186732225350814351e-01 -2.805349746136153732e-01
-4.091114482900100602e-01 -2.777684785185122185e-01
-4.000314346672028121e-01 -2.756528461218094583e-01
-3.917541083368705213e-01 -2.742968806366209988e-01
-3.845651155149673039e-01 -2.737875139584107775e-01
-3.787036668948672857e-01 -2.741867296994189296e-01
-3.743558224897901576e-01 -2.755314901346598844e-01
-3.716525012238372505e-01 -2.778344824841036953e-01
-3.706648448606630342e-01 -2.810829452446221843e-01
-3.714069842697869661e-01 -2.852430169698297324e-01
-3.738352929104363787e-01 -2.902586933662639757e-01
-3.778526845121862321e-01 -2.960557756575921684e-01
-3.833170883286969866e-01 -3.025459536756567869e-01
-3.900434204952563100e-01 -3.096255466275875667e-01
-3.978152690291952287e-01 -3.171840405852973666e-01
-4.063917340165049130e-01 -3.251029925274555588e-01
-4.155163710318493520e-01 -3.332609216060428703e-01
-4.249269818930149212e-01 -3.415366412141576657e-01
-4.343643735602567002e-01 -3.498101489782310392e-01
-4.435794776245646220e-01 -3.579664801794421591e-01
-4.523419968493057053e-01 -3.658976621332268864e-01
-4.604475302330175435e-01 -3.735034446644400763e-01
-4.677196869008242719e-01 -3.806935005138565309e-01
-4.740178501437757319e-01 -3.873871198240949609e-01
-4.792372646519731938e-01 -3.935156801068821486e-01
-4.833106276487426634e-01 -3.990211062653268304e-01
-4.862080598359105887e-01 -4.038556922647912328e-01
-4.879369701993764852e-01 -4.079829545322354867e-01
-4.885372285764033040e-01 -4.113764976212480051e-01
-4.880768040412754583e-01 -4.140179949893043609e-01
-4.866516117464119717e-01 -4.158984675427571664e-01
-4.843746371307512399e-01 -4.170149423294827740e-01
-4.813751048857345949e-01 -4.173710640806751471e-01
-4.777896132887072822e-01 -4.169761506421784114e-01
-4.737584752667695631e-01 -4.158426268806990067e-01
-4.694189326218194402e-01 -4.139873008036962232e-01
-4.649001241384160266e-01 -4.114291437251352823e-01
-4.603188106592024376e-01 -4.081891653185402147e-01
-4.557772371630068320e-01 -4.042908901653689546e-01
-4.513573160499484427e-01 -3.997585432943553951e-01
-4.471210221655071981e-01 -3.946180385311393590e-01
-4.431080204475118522e-01 -3.888966763198853371e-01
-4.393345968952209746e-01 -3.826230985024350328e-01
-4.357993519212485234e-01 -3.758285774740466878e-01
-4.324767929865585558e-01 -3.685452987741653641e-01
-4.293265300381798877e-01 -3.608088949390508282e-01
-4.262936812338950499e-01 -3.526573553472421851e-01
-4.233113176661142951e-01 -3.441323416032411875e-01
-4.203065976155179184e-01 -3.352782099034555818e-01
-4.172010637622128315e-01 -3.261436012039760080e-01
-4.139203560619735267e-01 -3.167801838432404149e-01
-4.103916854044012963e-01 -3.072446329258350373e-01
-4.065521912128498561e-01 -2.975962633623632225e-01
-4.023498876852033002e-01 -2.878980158722564409e-01
-3.977471144611935405e-01 -2.782155543172288303e-01
-3.927226307466138988e-01 -2.686176944712654890e-01
-3.872732447987564663e-01 -2.591737128744762142e-01
-3.814134788230351680e-01 -2.499541884412399551e-01
-3.751772358688577613e-01 -2.410292116653903194e-01
-3.686162794793249042e-01 -2.324684607693859040e-01
-3.618002901590127163e-01 -2.243379134708732014e-01
-3.548109375657035880e-01 -2.167009781064285767e-01
-3.477448810843506988e-01 -2.096159460526078877e-01
-3.407073340178986554e-01 -2.031356293482207698e-01
-3.338098028589613353e-01 -1.973054154709110164e-01
-3.271666823459604134e-01 -1.921629779106667768e-01
-3.208906486504827793e-01 -1.877370468855739660e-01
-3.150917614522037447e-01 -1.840466680120150800e-01
-3.098705247850102040e-01 -1.811012816034167361e-01
-3.053172437032051767e-01 -1.788990690153618168e-01
-3.015079759097139545e-01 -1.774277407714754951e-01
-2.985038646059920975e-01 -1.766645555506786147e-01
-2.963451594684808899e-01 -1.765761388466658421e-01
-2.950547059378363368e-01 -1.771190390567699002e-01
-2.946349649360410217e-01 -1.782411105143326402e-01
-2.950669266028219662e-01 -1.798810807685774504e-01
-2.963124104825952121e-01 -1.819713120472904178e-01
-2.983140168460286512e-01 -1.844376051068885025e-01
-3.009969762347188826e-01 -1.872015441881408893e-01
-3.042720663421679128e-01 -1.901822797748461968e-01
-3.080367270892780951e-01 -1.932974477316363737e-01
-3.121784233618883353e-01 -1.964647369686613188e-01
-3.165796721780129719e-01 -1.996047422804608229e-01
-3.211176818024853996e-01 -2.026412383981266996e-01
-3.256713241723473429e-01 -2.055045736472663198e-01
-3.301218246896792663e-01 -2.081306652627185616e-01
-3.343580362659938632e-01 -2.104646315511562726e-01
-3.382778241583718204e-01 -2.124613411736778201e-01
-3.417914002183833344e-01 -2.140851386146471746e-01
-3.448233420799077797e-01 -2.153124327575551278e-01
-3.473152735331973551e-01 -2.161314621401611014e-01
-3.492254508956206815e-01 -2.165413784777159845e-01
-3.505311333622056491e-01 -2.165536890938913883e-01
-3.512284764816900884e-01 -2.161912767679476655e-01
-3.513323270821329669e-01 -2.154869436786963910e-01
-3.508750578012060362e-01 -2.144840490501921937e-01
-3.499042496443192096e-01 -2.132344637539882737e-01
-3.484848992402058698e-01 -2.117962874549936814e-01
-3.466924168733844236e-01 -2.102336985820717208e-01
-3.446130619287014474e-01 -2.086149829108837894e-01
-3.423410398303845525e-01 -2.070089315623692139e-01
-3.399747507117663603e-01 -2.054855852663174665e-01
-3.376146121901398289e-01 -2.041117711209700369e-01
-3.353588549929377161e-01 -2.029514789012311915e-01
-3.333025888522817559e-01 -2.020616129683855955e-01
-3.315333254969848875e-01 -2.014926420516490457e-01
-3.301295768093520655e-01 -2.012852679581119131e-01
-3.291577151337595764e-01 -2.014701875945501541e-01
-3.286704608366179947e-01 -2.020673552823989139e-01
-3.287064514486648936e-01 -2.030829791071002699e-01
-3.292876249234418795e-01 -2.045126048058358015e-01
-3.304193189614312298e-01 -2.063386512483669499e-01
-3.320899771238783327e-01 -2.085310684548532245e-01
-3.342730242080185765e-01 -2.110488071797265996e-01
-3.369245909665160577e-01 -2.138393547633717917e-01
-3.399877059881670216e-01 -2.168421527182981257e-01
-3.433931967418698550e-01 -2.199876100154033731e-01
-3.470606115962992511e-01 -2.232008453253442604e-01
-3.509016259176531705e-01 -2.264030247578542598e-01
-3.548221075368223620e-01 -2.295133970673358670e-01
-3.587242805337164664e-01 -2.324514788619034544e-01
-3.625120949963730466e-01 -2.351399799429382542e-01
-3.660892878113681248e-01 -2.375059489256385881e-01
-3.693655929461224230e-01 -2.394839924612643667e-01
-3.722580727948526791e-01 -2.410178527687802663e-01
-3.746945547683834254e-01 -2.420619919656775698e-01
-3.766135568193202388e-01 -2.425826061699730141e-01
-3.779676415128142009e-01 -2.425606483219937271e-01
-3.787240947525516432e-01 -2.419907791249639173e-01
-3.788644747846128258e-01 -2.408821707794795708e-01
-3.783893427850281155e-01 -2.392596534003540165e-01
-3.773128070645207499e-01 -2.371618217745096180e-01
-3.756650965671500808e-01 -2.346412843159658979e-01
-3.734916902244593273e-01 -2.317629529533466737e-01
-3.708516356256723601e-01 -2.286026818081853262e-01
-3.678145639408857970e-01 -2.252450352458466865e-01
-3.644609077571673295e-01 -2.217816234492401006e-01
-3.608773245728888468e-01 -2.183080217069557349e-01
-3.571561844525758533e-01 -2.149216172045020079e-01
-3.533904604899792967e-01 -2.117182763750446450e-01
-3.496748616439018797e-01 -2.087901563817179673e-01
-3.460975254894202990e-01 -2.062232345214552176e-01
-3.427427517190330120e-01 -2.040932358404965175e-01
-3.396841636860680191e-01 -2.024644167328068511e-01
-3.369852059327173022e-01 -2.013877931806676569e-01
-3.346961458148535185e-01 -2.008983180559319737e-01
-3.328514909913839470e-01 -2.010133893707060360e-01
-3.314703594656948082e-01 -2.017334630537862550e-01
-3.305536523940800220e-01 -2.030397354171077084e-01
-3.300854515238361708e-01 -2.048948866553006731e-01
-3.300325284963617212e-01 -2.072435834792654696e-01
-3.303446432533987953e-01 -2.100142428920240001e-01
-3.309553602590137866e-01 -2.131194490427435195e-01
-3.317851934974191397e-01 -2.164587652380461635e-01
-3.327417787802110505e-01 -2.199202921924518772e-01
-3.337241059304639768e-01 -2.233850940104793736e-01
-3.346237226586492031e-01 -2.267295578492484198e-01
-3.353288881874326721e-01 -2.298276339215279684e-01
-3.357272904174802286e-01 -2.325554996192523427e-01
-3.357101056867519695e-01 -2.347959369857273160e-01
-3.351749725293439730e-01 -2.364402836586179113e-01
-3.340291460726799722e-01 -2.373919536114382223e-01
-3.321948590824667646e-01 -2.375713468255738203e-01
-3.296081327485829160e-01 -2.369154857617626619e-01
-3.262258582956444330e-01 -2.353839346190274018e-01
-3.220257499572489190e-01 -2.329581760822999337e-01
-3.170087833658923326e-01 -2.296439434423871440e-01
-3.112000992010551248e-01 -2.254719202913392784e-01
-3.046512747938917021e-01 -2.204978884413132389e-01
-2.974371211362252798e-01 -2.148017675596358422e-01
-2.896590780282492505e-01 -2.084871630587296354e-01
-2.814411217619869898e-01 -2.016789753407552399e-01
-2.729290623484553757e-01 -1.945210840392003482e-01
-2.642875217250958420e-01 -1.871722908822637532e-01
-2.556979939445473970e-01 -1.798054431367470396e-01
-2.473526959878137865e-01 -1.726007770889338155e-01
-2.394547922662411399e-01 -1.657426026074443060e-01
-2.322079507232105433e-01 -1.594150223663358956e-01
-2.258172177518777413e-01 -1.537967897658993333e-01
-2.204820951072895829e-01 -1.490567486923277951e-01
-2.163887691933883139e-01 -1.453493641729189378e-01
-2.137108226723894167e-01 -1.428104161623609536e-01
-2.125977138249074694e-01 -1.415519375968132543e-01
-2.131777783129723824e-01 -1.416602574257839198e-01
-2.155469325883450082e-01 -1.431920835977079920e-01
-2.197691052740647355e-01 -1.461711632227384039e-01
-2.258747899879426091e-01 -1.505885325661708296e-01
-2.338531308104625506e-01 -1.563992517860483822e-01
-2.436559098922002342e-01 -1.635247684639717092e-01
-2.551932926817949143e-01 -1.718508992906201405e-01
-2.683364456761510586e-01 -1.812308072934286918e-01
-2.829169652597863238e-01 -1.914874710830614113e-01
-2.987295421784187388e-01 -2.024162778163753895e-01
-3.155344391611838439e-01 -2.137883699860046449e-01
-3.330601364195564518e-01 -2.253551760002097393e-01
-3.510102436363479739e-01 -2.368544606105244255e-01
-3.690671800276418835e-01 -2.480139273466260008e-01
-3.868965930268403741e-01 -2.585593342028694730e-01
-4.041556156919605680e-01 -2.682174007016686623e-01
-4.204979724447859279e-01 -2.767243156249549196e-01
-4.355828890882856852e-01 -2.838306413463387856e-01
-4.490791366846827448e-01 -2.893075112861265841e-01
-4.606733750090076240e-01 -2.929512196567221616e-01
-4.700772989042873995e-01 -2.945892944816636549e-01
-4.770330737618041494e-01 -2.940845913418969060e-01
-4.813201858491007457e-01 -2.913377741474277305e-01
-4.827590148013459204e-01 -2.862923060692373345e-01
-4.812175749534888247e-01 -2.789349279576980867e-01
-4.766130223242143749e-01 -2.692972474046526621e-01
-4.689156701705967101e-01 -2.574568359405758899e-01
-4.581510128675421734e-01 -2.435355763383068861e-01
-4.443998908892720090e-01 -2.276980361734664005e-01
-4.277976338551432445e-01 -2.101499065518030729e-01
-4.085328125846114378e-01 -1.911332769101474760e-01
-3.868459622312784840e-01 -1.709228894850517433e-01
-3.630250496678623096e-01 -1.498216100875578716e-01
-3.373995892811238462e-01 -1.281550167171383314e-01
-3.103376023362942604e-01 -1.062637787809707496e-01
-2.822382911612246748e-01 -8.449947196817157724e-02
-2.535245737903413232e-01 -6.321598842185364997e-02
-2.246370933666261560e-01 -4.276402021084620836e-02
-1.960241975605098719e-01 -2.348342104471145067e-02
-1.681362782913192466e-01 -5.698177049777522832e-03
-1.414155570633842673e-01 1.029207504173083702e-02
-1.162907342362053398e-01 2.421513842822953580e-02
-9.316572730347751075e-02 3.583418874319316272e-02
-7.241415304405168785e-02 4.494918725045160546e-02
-5.437361849311143913e-02 5.140335607737561013e-02
-3.933676952524488291e-02 5.508398345678163638e-02
-2.754857683048690317e-02 5.592612957050101252e-02
-1.920107647301678988e-02 5.391161437556634545e-02
-1.442868204722782925e-02 4.907105917050191141e-02
-1.330844368196603018e-02 4.148113312647854628e-02
-1.585636263626359621e-02 3.126458762418039133e-02
-2.202876494169103347e-02 1.858574804643866804e-02
-3.172410563714869042e-02 3.648362145848064574e-03
-4.478283309215261992e-02 -1.331008542948362329e-02
-6.099319655453382116e-02 -3.202066840973615686e-02
-8.009422016909635567e-02 -5.219158021064927711e-02
-1.017806928909004843e-01 -7.351203305490573714e-02
-1.257099961008232569e-01 -9.565838685291466748e-02
-1.515080989527140265e-01 -1.183011035994307042e-01
-1.787780196442555203e-01 -1.411107495630454234e-01
-2.071043918887607305e-01 -1.637631700838768634e-01
-2.360649027422184187e-01 -1.859477099713186254e-01
-2.652347393295631517e-01 -2.073690428322289836e-01
-2.941977635112267841e-01 -2.277563622997006432e-01
-3.225506242938081525e-01 -2.468646145406327153e-01
-3.499114296230094734e-01 -2.644798541074527831e-01
-3.759265141040160629e-01 -2.804222742338076668e-01
-4.002767071317718250e-01 -2.945488975314599078e-01
-4.226800282609982640e-01 -3.067529220249214927e-01
-4.428984871585225358e-01 -3.169681837978589045e-01
-4.607404254606807803e-01 -3.251653942294885358e-01
-4.760620389944328346e-01 -3.313542892443144261e-01
-4.887703606372258980e-01 -3.355793297193996327e-01
-4.988222100596504949e-01 -3.379198383178228515e-01
-5.062241801481862646e-01 -3.384866383303858917e-01
-5.110295327970350021e-01 -3.374158523138764965e-01
-5.133379355282258194e-01 -3.348697207930110831e-01
-5.132894627125920151e-01 -3.310284026059321372e-01
-5.110631339460270928e-01 -3.260868355505829319e-01
-5.068693479924456513e-01 -3.202512643916012314e-01
-5.009464948830653075e-01 -3.137330708765023179e-01
-4.935531294547669257e-01 -3.067435338387420329e-01
-4.849640349456005306e-01 -2.994921760249803500e-01
-4.754636826239629355e-01 -2.921800071263129794e-01
-4.653380863794178701e-01 -2.849966719182931985e-01
-4.548719905458659118e-01 -2.781170155149305656e-01
-4.443389610757410013e-01 -2.716985199530503881e-01
-4.340009905052191197e-01 -2.658781612220709190e-01
-4.240983572068512397e-01 -2.607708699151620180e-01
-4.148493427796944855e-01 -2.564684258966850594e-01
-4.064454388637797622e-01 -2.530395489829997402e-01
-3.990454664058096790e-01 -2.505278128942902693e-01
-3.927786248226476373e-01 -2.489548712995222346e-01
-3.877389156732282682e-01 -2.483181768982112014e-01
-3.839871718025721359e-01 -2.485969111067529713e-01
-3.815482506872595048e-01 -2.497489565538241196e-01
-3.804152683245509703e-01 -2.517165999974380619e-01
-3.805491508111319421e-01 -2.544288559048514253e-01
-3.818825345902981394e-01 -2.578021260843709195e-01
-3.843201363783026459e-01 -2.617457811901446885e-01
-3.877458581321356346e-01 -2.661635702407506576e-01
-3.920221138465652677e-01 -2.709560370464011436e-01
-3.969995376379361063e-01 -2.760255784097298548e-01
-4.025147511588763050e-01 -2.812766005749336440e-01
-4.084018690886367375e-01 -2.866202694491385983e-01
-4.144894785536853976e-01 -2.919745205492534357e-01
-4.206112404299559571e-01 -2.972670538744904278e-01
-4.266066198618838623e-01 -3.024366487802407355e-01
-4.323258054780879100e-01 -3.074344743378726319e-01
-4.376317952725729543e-01 -3.122237166356342519e-01
-4.424047903338662047e-01 -3.167808831498168942e-01
-4.465439707177311646e-01 -3.210941503020993126e-01
-4.499696235696649116e-01 -3.251648266267089249e-01
-4.526231305561684848e-01 -3.290042065571401886e-01
-4.544696893418944672e-01 -3.326343674663310157e-01
-4.554969133175682527e-01 -3.360841311019259203e-01
-4.557145316258059964e-01 -3.393900636711822405e-01
-4.551530384601982226e-01 -3.425923844596465706e-01
-4.538628134103762646e-01 -3.457334789937339115e-01
-4.519123284666189955e-01 -3.488565185980014860e-01
-4.493840380586220928e-01 -3.520024591494688160e-01
-4.463739062565394433e-01 -3.552088465727370470e-01
-4.429850062942578548e-01 -3.585067168437844898e-01
-4.393295665436846575e-01 -3.619200215599196468e-01
-4.355192779663809577e-01 -3.654642276240497867e-01
-4.316677452608125853e-01 -3.691449809159190187e-01
-4.278838225998677358e-01 -3.729560750082933085e-01
-4.242711300135520447e-01 -3.768810797490732001e-01
-4.209223651440804903e-01 -3.808913122542775254e-01
-4.179184539656683461e-01 -3.849473768362200454e-01
-4.153280482145150221e-01 -3.889985720829469695e-01
-4.132030309528745282e-01 -3.929849904071318623e-01
-4.115786229684788577e-01 -3.968373288533010301e-01
-4.104729361157933298e-01 -4.004798674299724914e-01
-4.098852678586342724e-01 -4.038309932169031891e-01
-4.097987779033261391e-01 -4.068054982366052785e-01
-4.101794671399599523e-01 -4.093167273569813247e-01
-4.109759999261534680e-01 -4.112787331960557347e-01
-4.121249990207457858e-01 -4.126089211731051032e-01
-4.135485359936556526e-01 -4.132287620064356015e-01
-4.151600126731324614e-01 -4.130680803127622647e-01
-4.168637430342633232e-01 -4.120648144744794017e-01
-4.185602827252852265e-01 -4.101688126925728817e-01
-4.201459383100383804e-01 -4.073418095440252129e-01
-4.215192160320245796e-01 -4.035596817393232727e-01
-4.225806186152458732e-01 -3.988136017089439767e-01
-4.232368337942057357e-01 -3.931099676300573997e-01
-4.234023313255948495e-01 -3.864708224405332126e-01
-4.230020018902539980e-01 -3.789347811622463258e-01
-4.219745596400614751e-01 -3.705560926327353122e-01
-4.202711405493429475e-01 -3.614033802698580766e-01
-4.178601963790729568e-01 -3.515595686142098941e-01
-4.147247811642254534e-01 -3.411202753019788592e-01
-4.108675409189391226e-01 -3.301910792652593685e-01
-4.063055862915916916e-01 -3.188877346492909881e-01
-4.010747929625928521e-01 -3.073325549189461214e-01
-3.952269493111143506e-01 -2.956520586424922770e-01
-3.888276259629449005e-01 -2.839758333298900150e-01
-3.819572096346727785e-01 -2.724326159681744741e-01
-3.747079400352603673e-01 -2.611499109516463579e-01
-3.671809828570210543e-01 -2.502497104058987176e-01
-3.594862694893113941e-01 -2.398470889527887784e-01
-3.517383923566926307e-01 -2.300484711481639855e-01
-3.440535187707779441e-01 -2.209487875065070384e-01
-3.365492128457924781e-01 -2.126316776729048896e-01
-3.293406312785422951e-01 -2.051653753510558620e-01
-3.225364503204944389e-01 -1.986042027774698460e-01
-3.162398865954197946e-01 -1.929870250971059409e-01
-3.105430674479320863e-01 -1.883358309748095205e-01
-3.055277151955259063e-01 -1.846574238015327718e-01
-3.012621001743344129e-01 -1.819417548453670652e-01
-2.978001704639367531e-01 -1.801641338165106132e-01
-2.951812653018973109e-01 -1.792860104668858590e-01
-2.934268677241637646e-01 -1.792542904217169775e-01
-2.925438228395714213e-01 -1.800058159013058490e-01
-2.925227281926803258e-01 -1.814657372482848530e-01
-2.933372022941170831e-01 -1.835518150064808784e-01
-2.949474053526748296e-01 -1.861749810770243763e-01
-2.972987663098959343e-01 -1.892422139788581814e-01
-3.003246827914938244e-01 -1.926579302754266865e-01
-3.039472558427420146e-01 -1.963261223331891625e-01
-3.080819137010566422e-01 -2.001531154279788671e-01
-3.126342515207308770e-01 -2.040477102428863154e-01
-3.175061038842754702e-01 -2.079250559193052961e-01
-3.225982813202426525e-01 -2.117072317691330308e-01
-3.278094831492935346e-01 -2.153233936535251247e-01
-3.330416719922505431e-01 -2.187144694128503597e-01
-3.381999393954581712e-01 -2.218286101567727708e-01
-3.431952259386433224e-01 -2.246276575674201192e-01
-3.479471315657615138e-01 -2.270819702644473748e-01
-3.523822697328928832e-01 -2.291757567067422563e-01
-3.564402645773141476e-01 -2.309024232999223603e-01
-3.600707152786639664e-01 -2.322665670719506747e-01
-3.632354157893832314e-01 -2.332826564175856099e-01
-3.659088781258731382e-01 -2.339732302258529240e-01
-3.680787806784954208e-01 -2.343702149385284150e-01
-3.697441913241220068e-01 -2.345107295686337523e-01
-3.709174205917740164e-01 -2.344373568039834210e-01
-3.716206422573628543e-01 -2.341962011755696349e-01
-3.718879546696520766e-01 -2.338360289120470226e-01
-3.717612826751895971e-01 -2.334059401271737222e-01
-3.712901079672700222e-01 -2.329534403225774486e-01
-3.705298790247859575e-01 -2.325258125178734647e-01
-3.695421400375363263e-01 -2.321647083917714460e-01
-3.683899146855000861e-01 -2.319083859202623887e-01
-3.671371508356369717e-01 -2.317892865494191046e-01
-3.658478675563425209e-01 -2.318326250080573192e-01
-3.645827559589412958e-01 -2.320590523400746230e-01
-3.634002267645545237e-01 -2.324782886775195734e-01
-3.623532357926811387e-01 -2.330947622406180919e-01
-3.614868751845889960e-01 -2.339057976515782344e-01
-3.608419734612753893e-01 -2.348999313920403231e-01
-3.604476125587933177e-01 -2.360595452564383800e-01
-3.603278596447589410e-01 -2.373619107205705570e-01
-3.604948089996648508e-01 -2.387776381715553120e-01
-3.609533484462956188e-01 -2.402740369113595120e-01
-3.616984757062657319e-01 -2.418145293795746775e-01
-3.627182254328196742e-01 -2.433610901388855441e-01
-3.639897783142400089e-01 -2.448736755143660071e-01
-3.654873314049711386e-01 -2.463140056402996769e-01
-3.671743667844190595e-01 -2.476442023009235993e-01
-3.690127218255818686e-01 -2.488294327317461807e-01
-3.709577127877305425e-01 -2.498386300502637158e-01
-3.729643531717541927e-01 -2.506446834510808741e-01
-3.749839955751161358e-01 -2.512262192368820424e-01
-3.769700554702054562e-01 -2.515679940146050009e-01
-3.788734492547674582e-01 -2.516613090153192456e-01
-3.806510706386722065e-01 -2.515036659787873163e-01
-3.822616281628637980e-01 -2.510998568593949543e-01
-3.836667596641562539e-01 -2.504604059866561427e-01
-3.848350163871037677e-01 -2.496032428571148543e-01
-3.857394398165092664e-01 -2.485512183131845243e-01
-3.863595271301242251e-01 -2.473331447024153806e-01
-3.866806030447834108e-01 -2.459813056366658979e-01
-3.866950774230241139e-01 -2.445314236272892183e-01
-3.864014829915848326e-01 -2.430219973129535138e-01
-3.858043293516533745e-01 -2.414917844285327242e-01
-3.849129652164710591e-01 -2.399802569790131512e-01
-3.837421261769260461e-01 -2.385249041920113333e-01
-3.823106184347958569e-01 -2.371605141660554916e-01
-3.806405373877522758e-01 -2.359203382099921420e-01
-3.787566491702168414e-01 -2.348296244242951414e-01
-3.766853846637249204e-01 -2.339118466285626807e-01
-3.744526064459032244e-01 -2.331806167964069754e-01
-3.720844107853605309e-01 -2.326450475608448643e-01
-3.696056897644844352e-01 -2.323053970985326788e-01
-3.670387119882898008e-01 -2.321557363205138946e-01
-3.644021617684232717e-01 -2.321814812144300244e-01
-3.617126894722261787e-01 -2.323613700529374437e-01
-3.589818258290755071e-01 -2.326666235640055813e-01
-3.562188303960485691e-01 -2.330628939671819944e-01
-3.534251917112395946e-01 -2.335100862189132820e-01
-3.506013621341512732e-01 -2.339625535301010639e-01
-3.477415406478264193e-01 -2.343733578475126478e-01
-3.448388942903852783e-01 -2.346918556274165957e-01
-3.418807955474508775e-01 -2.348677194802978596e-01
-3.388544361163273733e-01 -2.348513568786790573e-01
-3.357457566973567897e-01 -2.345952117649111601e-01
-3.325390109259700466e-01 -2.340559018072403130e-01
-3.292208051164047800e-01 -2.331950056755821843e-01
-3.257789428045103075e-01 -2.319806131935778781e-01
-3.222046053819503375e-01 -2.303895992230793333e-01
-3.184944651202593069e-01 -2.284067465571437139e-01
-3.146475253630214852e-01 -2.260266995657583544e-01
-3.106716067060177333e-01 -2.232558440814743084e-01
-3.065808234829459078e-01 -2.201103825204127340e-01
-3.023968308280805539e-01 -2.166176475626035158e-01
-2.981496768455407231e-01 -2.128170523823856575e-01
-2.938791800628476336e-01 -2.087579109673513011e-01
-2.896316610273632630e-01 -2.045004210008299073e-01
-2.854635810485752212e-01 -2.001129959981195472e-01
-2.814378236884102491e-01 -1.956730873900617007e-01
-2.776263897170778705e-01 -1.912647003307857974e-01
-2.741050344529163407e-01 -1.869770928141080979e-01
-2.709570020283894043e-01 -1.829024486601423805e-01
-2.682671314618106373e-01 -1.791344322123938071e-01
-2.661225574191123378e-01 -1.757668361179539340e-01
-2.646107930914845530e-01 -1.728890112478328189e-01
-2.638169557646731778e-01 -1.705873099678907601e-01
-2.638229936569987388e-01 -1.689401672482397088e-01
-2.647023965414772029e-01 -1.680166092828961899e-01
-2.665235146137441835e-01 -1.678752569393172078e-01
-2.693411810476013524e-01 -1.685620203616478019e-01
-2.731997785062479367e-01 -1.701083293305376276e-01
-2.781274233299393384e-01 -1.725281670393780942e-01
-2.841382491791599185e-01 -1.758217738081266357e-01
-2.912274165323906483e-01 -1.799697204869421807e-01
-2.993702221251833828e-01 -1.849351750487606971e-01
-3.085260131554062868e-01 -1.906632207393821610e-01
-3.186299860179263033e-01 -1.970819961413784183e-01
-3.295995069006652511e-01 -2.041007383476805548e-01
-3.413306309347444722e-01 -2.116142335465047153e-01
-3.537007331238428698e-01 -2.195020497708153606e-01
-3.665687000075662505e-01 -2.276305940568362218e-01
-3.797761002415754872e-01 -2.358556298430471432e-01
-3.931503396409662399e-01 -2.440237528416183688e-01
-4.065056310977857579e-01 -2.519757961867654661e-01
-4.196454356435975197e-01 -2.595490179579704737e-01
-4.323678654512965180e-01 -2.665806583271215224e-01
-4.444635970007921877e-01 -2.729089328777819512e-01
-4.557269826439113714e-01 -2.783795229002948846e-01
-4.659513697347187344e-01 -2.828442040275315206e-01
-4.749377622358448292e-01 -2.861677233531859099e-01
-4.824980521653859933e-01 -2.882291724236307195e-01
-4.884560080569673723e-01 -2.889225472457734312e-01
-4.926537457446506507e-01 -2.881630039538803367e-01
-4.949529471568553940e-01 -2.858851842820015476e-01
-4.952390819394778543e-01 -2.820477461799891783e-01
-4.934231307063687288e-01 -2.766330267280042721e-01
-4.894447710228003734e-01 -2.696490416144326496e-01
-4.832745279924980375e-01 -2.611287579876935827e-01
-4.749140363383421715e-01 -2.511321307192799779e-01
-4.643973270841784129e-01 -2.397439609614374911e-01
-4.517921111784331534e-01 -2.270736799838330988e-01
-4.372002837148353804e-01 -2.132551609713983221e-01
-4.207534800516907758e-01 -1.984431097979407477e-01
-4.026164109711228845e-01 -1.828116140807545531e-01
-3.829833526589948023e-01 -1.665543858214592610e-01
-3.620739856452246386e-01 -1.498763807347507637e-01
-3.401325713280222707e-01 -1.329960375121748972e-01
-3.174250822743014955e-01 -1.161400007372303117e-01
-2.942334291587522244e-01 -9.953848838329913684e-02
-2.708520573797289499e-01 -8.342238209401788007e-02
-2.475861400338627005e-01 -6.802203999804370960e-02
-2.247430184267639741e-01 -5.355895341601590171e-02
-2.026299455922946635e-01 -4.024642412007147646e-02
-1.815486127067621747e-01 -2.828287276701791156e-02
-1.617902555553686894e-01 -1.785081210262022544e-02
-1.436325071215639182e-01 -9.113781673165427533e-03
-1.273316507352637295e-01 -2.210657386765504159e-03
-1.131226524049776250e-01 2.743081205116111240e-03
-1.012123964780669294e-01 5.658268713869016135e-03
-9.177632611527625217e-02 6.474942234622328534e-03
-8.495703732153257748e-02 5.163193786947660631e-03
-8.086108519331067224e-02 1.722001413076503472e-03
-7.955586998769829943e-02 -3.818944685523128612e-03
-8.107078228881850479e-02 -1.139978090298698378e-02
-8.539528016071812333e-02 -2.093335237047126013e-02
-9.247843999111839131e-02 -3.230222566531271156e-02
-1.022308845710306890e-01 -4.536595811209903628e-02
-1.145243170655327741e-01 -5.995878247742642692e-02
-1.291959252903405742e-01 -7.589383148063373608e-02
-1.460491753853200014e-01 -9.296802793559184874e-02
-1.648570605746128015e-01 -1.109622364020576707e-01
-1.853657113071555951e-01 -1.296454331759031575e-01
-2.072976872304400919e-01 -1.487794869927647756e-01
-2.303591545708038035e-01 -1.681222318042628339e-01
-2.542428889406534998e-01 -1.874322384753527582e-01
-2.786303650894842443e-01 -2.064691422265343967e-01
-3.032012534609796472e-01 -2.250023207683196080e-01
-3.276353454938282783e-01 -2.428104062725607581e-01
-3.516208103680121821e-01 -2.596864884607725243e-01
-3.748535583129362081e-01 -2.754408805287092421e-01
-3.970474663286209238e-01 -2.899034900487069688e-01
-4.179372364747768742e-01 -3.029269677338256583e-01
-4.372797408612761894e-01 -3.143883977898357940e-01
-4.548606169646479125e-01 -3.241896873712749039e-01
-4.704957933708008855e-01 -3.322606640778877907e-01
-4.840348597906383166e-01 -3.385593309773897719e-01
-4.953621213660157618e-01 -3.430703291452576464e-01
-5.043984616419211475e-01 -3.458079620350224537e-01
-5.111037345415618827e-01 -3.468120709419094116e-01
-5.154716075718742685e-01 -3.461488475740629456e-01
-5.175356819161824884e-01 -3.439094283032491650e-01
-5.173639684504518499e-01 -3.402068272576468932e-01
-5.150576863446426623e-01 -3.351747612836356582e-01
-5.107505922356891936e-01 -3.289644955028640516e-01
-5.046042543866900987e-01 -3.217418804960303635e-01
-4.968065979766592699e-01 -3.136857558006457825e-01
-4.875659020575451308e-01 -3.049826982225561922e-01
-4.771093197411325759e-01 -2.958245266476061119e-01
-4.656763947867583742e-01 -2.864061755314585289e-01
-4.535169708621671902e-01 -2.769220672978794928e-01
-4.408856807173920922e-01 -2.675607713955397982e-01
-4.280359161118589273e-01 -2.585045055835011318e-01
-4.152171182338100230e-01 -2.499263253738927548e-01
-4.026715906425439861e-01 -2.419854124308589149e-01
-3.906272014552205629e-01 -2.348266434704973926e-01
-3.792971024424249271e-01 -2.285772577190808286e-01
-3.688734567039046452e-01 -2.233471702129521397e-01
-3.595247015595025020e-01 -2.192244784267118607e-01
-3.513990786321427029e-01 -2.162779531215746343e-01
-3.446114083069029554e-01 -2.145533898831357145e-01
-3.392508983960590974e-01 -2.140754961205116325e-01
-3.353775124370715899e-01 -2.148475718457223960e-01
-3.330200735212889285e-01 -2.168513119773755327e-01
-3.321791939503307978e-01 -2.200485738921924839e-01
-3.328235045858957686e-01 -2.243822399765326991e-01
-3.348971429918915499e-01 -2.297781093136978536e-01
-3.383156030508822631e-01 -2.361448778229761902e-01
-3.429716381110867740e-01 -2.433793417220346256e-01
-3.487353767173921315e-01 -2.513660360098456392e-01
-3.554615884620309085e-01 -2.599802427299258145e-01
-3.629858368611749708e-01 -2.690907305294270579e-01
-3.711349242815411009e-01 -2.785612240124065164e-01
-3.797250941541458480e-01 -2.882543887585037878e-01
-3.885699784255121081e-01 -2.980336035823993868e-01
-3.974808788357632738e-01 -3.077637091698370853e-01
-4.062725440668663035e-01 -3.173158476939504924e-01
-4.147655302722643156e-01 -3.265675491477949000e-01
-4.227899346280432069e-01 -3.354047054130179228e-01
-4.301891508626477512e-01 -3.437251860121916525e-01
-4.368211505878051293e-01 -3.514371620873290025e-01
-4.425607764243415509e-01 -3.584625162220442807e-01
-4.473036339835084751e-01 -3.647356471578106496e-01
-4.509677716610551723e-01 -3.702070136670785883e-01
-4.534908697008072642e-01 -3.748391667228878066e-01
-4.548359473126509789e-01 -3.786111600091874307e-01
-4.549880443984423151e-01 -3.815147426934537012e-01
-4.539560952513931880e-01 -3.835558217246662349e-01
-4.517713185785194874e-01 -3.847521298480864327e-01
-4.484854644979212601e-01 -3.851339860288534589e-01
-4.441718124254417921e-01 -3.847419118720627473e-01
-4.389188422880891394e-01 -3.836246188368804266e-01
-4.328339475919216195e-01 -3.818401643757727837e-01
-4.260348303360683153e-01 -3.794513399125739039e-01
-4.186522529552837990e-01 -3.765259016934597858e-01
-4.108223172900983267e-01 -3.731342497248434920e-01
-4.026877658256138304e-01 -3.693472879862483294e-01
-3.943932319635694017e-01 -3.652373676235970978e-01
-3.860818132988682039e-01 -3.608738395212412464e-01
-3.778901225373069717e-01 -3.563224141469978345e-01
-3.699536342981813442e-01 -3.516459116315286959e-01
-3.623932038655934273e-01 -3.468998126101712765e-01
-3.553203372316587894e-01 -3.421345792094132587e-01
-3.488336536199715954e-01 -3.373934329328219239e-01
-3.430152836552118334e-01 -3.327122631657319363e-01
-3.379304405836350278e-01 -3.281178682928876933e-01
-3.336281826064162459e-01 -3.236306031457737431e-01
-3.301370065461770587e-01 -3.192616993349911003e-01
-3.274682674478109345e-01 -3.150156594383598518e-01
-3.256161698732925047e-01 -3.108904179046874661e-01
-3.245533658043415204e-01 -3.068764290730341959e-01
-3.242395512819002956e-01 -3.029596286797797133e-01
-3.246159599793226880e-01 -2.991193563877529993e-01
-3.256095146070180357e-01 -2.953339858059482181e-01
-3.271386994755394184e-01 -2.915778003251688344e-01
-3.291060781738848195e-01 -2.878241559251377146e-01
-3.314114352811856623e-01 -2.840453876554708268e-01
-3.339444448658310804e-01 -2.802154665298920433e-01
-3.365965126524197437e-01 -2.763111516471177254e-01
-3.392545341972461048e-01 -2.723098951856390282e-01
-3.418088226827005194e-01 -2.681958144385491183e-01
-3.441548225358833091e-01 -2.639559762992679803e-01
-3.461933856995311198e-01 -2.595834652316756919e-01
-3.478352071072636220e-01 -2.550778293099444927e-01
-3.490009570697307217e-01 -2.504449352533731354e-01
-3.496255850430758372e-01 -2.456975437773784576e-01
-3.496558069237267752e-01 -2.408534697312038619e-01
-3.490555306772412658e-01 -2.359398587695399063e-01
-3.478022984269534268e-01 -2.309881453525994832e-01
-3.458933374881312806e-01 -2.260359896204497676e-01
-3.433383368346599185e-01 -2.211263666894147939e-01
-3.401661346452310442e-01 -2.163073396387134029e-01
-3.364200662558195498e-01 -2.116292616669711302e-01
-3.321583519086220293e-01 -2.071452714432093500e-01
-3.274521120438998456e-01 -2.029106902628365627e-01
-3.223843512968735392e-01 -1.989793243091456942e-01
-3.170500346090284749e-01 -1.954063918816953960e-01
-3.115499733461810083e-01 -1.922426038462028697e-01
-3.059906540963682198e-01 -1.895362138408031305e-01
-3.004861165263605360e-01 -1.873310024824100528e-01
-2.951471890617887173e-01 -1.856656710415269251e-01
-2.900856002406312917e-01 -1.845697776165858561e-01
-2.854102278464853426e-01 -1.840691066237341855e-01
-2.812238062823896323e-01 -1.841779542751637577e-01
-2.776204822678742801e-01 -1.849034773523319242e-01
-2.746865192905550423e-01 -1.862433582141738708e-01
-2.724930466465895762e-01 -1.881846129747782037e-01
-2.711023338552699946e-01 -1.907067514030332533e-01
-2.705582166424645996e-01 -1.937778168830023573e-01
-2.708901552837574278e-01 -1.973581406511669689e-01
-2.721116966556452188e-01 -2.013985002067968932e-01
-2.742205198044520009e-01 -2.058424461438741748e-01
-2.771952564668204722e-01 -2.106255482315257943e-01
-2.809995896852411912e-01 -2.156795429263203834e-01
-2.855806595225354183e-01 -2.209276690739152282e-01
-2.908722064601586554e-01 -2.262929153358922141e-01
-2.967929502443676926e-01 -2.316933476432046224e-01
-3.032495650642604845e-01 -2.370479083367497963e-01
-3.101385442453684638e-01 -2.422745396582081934e-01
-3.173479665312086140e-01 -2.472946436210411714e-01
-3.247610025997058059e-01 -2.520316797052186142e-01
-3.322550972537278158e-01 -2.564141437977784377e-01
-3.397076211442533467e-01 -2.603770713908519219e-01
-3.469953173788849488e-01 -2.638618438868199911e-01
-3.539997243508539171e-01 -2.668191654230611110e-01
-3.606056966804770947e-01 -2.692079273821345042e-01
-3.667088923228971620e-01 -2.709977291274915934e-01
-3.722124320537285036e-01 -2.721687620446557876e-01
-3.770310127726066995e-01 -2.727113962277952774e-01
-3.810956433187538961e-01 -2.726291137143030952e-01
-3.843472126273848599e-01 -2.719341230698443801e-01
-3.867478008615240492e-01 -2.706520166463384225e-01
-3.882703557415354001e-01 -2.688165314810544992e-01
-3.889101545835630391e-01 -2.664735407427330505e-01
-3.886761284374273817e-01 -2.636771631054494192e-01
-3.875952605307888543e-01 -2.604887249995292420e-01
-3.857116220116090788e-01 -2.569790973979362292e-01
-3.830817005188683622e-01 -2.532220733210417962e-01
-3.797805954043423915e-01 -2.492975576562026507e-01
-3.758931699925759373e-01 -2.452876380489840691e-01
-3.715160384463502274e-01 -2.412761484744260221e-01
-3.667553351794979877e-01 -2.373466435301149202e-01
-3.617226521215440305e-01 -2.335809821677864717e-01
-3.565357625157574706e-01 -2.300571147101041769e-01
-3.513132550432824797e-01 -2.268488151827486032e-01
-3.461750658500263311e-01 -2.240236657371855455e-01
-3.412372762263328752e-01 -2.216410667576260429e-01
-3.366117553845248134e-01 -2.197527012695144055e-01
-3.324005891058603446e-01 -2.183994991197044933e-01
-3.286994292623844904e-01 -2.176130120496974629e-01
-3.255912704073553043e-01 -2.174127632168691426e-01
-3.231433775386780005e-01 -2.178062359741919918e-01
-3.214115703487180897e-01 -2.187908200917577373e-01
-3.204339972797214942e-01 -2.203506619572299097e-01
-3.202314383976669343e-01 -2.224587273328162695e-01
-3.208075675623929257e-01 -2.250767041960324844e-01
-3.221478919370905913e-01 -2.281562996351141626e-01
-3.242202266151728018e-01 -2.316384705660782528e-01
-3.269757038471239330e-01 -2.354567122987255845e-01
-3.303481823380984284e-01 -2.395361027012461175e-01
-3.342569958895822979e-01 -2.437964539940154218e-01
-3.386068946281076131e-01 -2.481516739711322750e-01
-3.432911500385321113e-01 -2.525151309846342951e-01
-3.481927842194381673e-01 -2.567954700392259815e-01
-3.531866993909294483e-01 -2.609036484594943750e-01
-3.581433017772496785e-01 -2.647521724648554398e-01
-3.629297331400289650e-01 -2.682564798294503339e-01
-3.674114169190790258e-01 -2.713377729457459586e-01
-3.714599486169488651e-01 -2.739240248443933767e-01
-3.749478004152111965e-01 -2.759511303765596058e-01
-3.777585177055353127e-01 -2.773634743558937577e-01
-3.797838399556726641e-01 -2.781177067766705813e-01
-3.809293256938869887e-01 -2.781794194107434226e-01
-3.811149175848660420e-01 -2.775289529971994851e-01
-3.802774726338835065e-01 -2.761576263761593708e-01
-3.783713640929757260e-01 -2.740707835708631745e-01
-3.753704369497200544e-01 -2.712855559425675356e-01
-3.712706626995260217e-01 -2.678334830579541803e-01
-3.660854766394442961e-01 -2.637570401116250962e-01
-3.598541810499766291e-01 -2.591120363040737562e-01
-3.526341182091475845e-01 -2.539646290970877240e-01
-3.445027666045672454e-01 -2.483912506152756716e-01
-3.355591631106297212e-01 -2.424766616256388008e-01
-3.259183210036760703e-01 -2.363142017667791694e-01
-3.157133739396497107e-01 -2.300014698729816454e-01
-3.050909465662031694e-01 -2.236422140178933871e-01
-2.942099503508942560e-01 -2.173413258214194621e-01
-2.832391613940227204e-01 -2.112056412999775978e-01
-2.723540758920992566e-01 -2.053394917275473963e-01
-2.617339477762282152e-01 -1.998457067003616139e-01
-2.515591496827055407e-01 -1.948221986975905429e-01
-2.420082562939116777e-01 -1.903600742684924962e-01
-2.332537274339017142e-01 -1.865425986685635418e-01
-2.254595188043724274e-01 -1.834442217633900918e-01
-2.187789378442520638e-01 -1.811279770873213957e-01
-2.133512063334169484e-01 -1.796450472737968485e-01
-2.092976759805073028e-01 -1.790338118389322997e-01
-2.067221474080511989e-01 -1.793188959565453489e-01
-2.057064170127338165e-01 -1.805101999518464728e-01
-2.063083797178381917e-01 -1.826035105886460175e-01
-2.085637181817716068e-01 -1.855797224118390099e-01
-2.124799765276579044e-01 -1.894055519327047798e-01
-2.180412672422031573e-01 -1.940325367735605266e-01
-2.252051833541142967e-01 -1.994002716541124487e-01
-2.339021115700475606e-01 -2.054342423646985383e-01
-2.440378135025578210e-01 -2.120494780960446024e-01
-2.554953856849216942e-01 -2.191499169491070431e-01
-2.681330703920060121e-01 -2.266307666883872474e-01
-2.817908559030570248e-01 -2.343800015610647824e-01
-2.962869068365050484e-01 -2.422801478312427426e-01
-3.114269139055337310e-01 -2.502103703492078446e-01
-3.270017762345319157e-01 -2.580464598151935296e-01
-3.427922712893609614e-01 -2.656660214704995582e-01
-3.585732136236571832e-01 -2.729471756944941707e-01
-3.741154135632412392e-01 -2.797725391765947256e-01
-3.891882338350270421e-01 -2.860296917855832954e-01
-4.035676374674550537e-01 -2.916148001073619045e-01
-4.170344440943079545e-01 -2.964318680647552440e-01
-4.293803002857978224e-01 -3.003962185254459571e-01
-4.404100271894720309e-01 -3.034340216230824727e-01
-4.499451481188942448e-01 -3.054852114279161812e-01
-4.578267970863810765e-01 -3.065047948427252478e-01
-4.639175882986563138e-01 -3.064603493079561258e-01
-4.681049585055491735e-01 -3.053359536932988560e-01
-4.703006484527338382e-01 -3.031311416797717873e-01
-4.704443427641494813e-01 -2.998601247952351057e-01
-4.685053820711143069e-01 -2.955539089416195919e-01
-4.644788585127961333e-01 -2.902576260577579004e-01
-4.583917701101209996e-01 -2.840308347770910680e-01
-4.502982225699374008e-01 -2.769461786105739676e-01
-4.402804159029421460e-01 -2.690892521397950654e-01
-4.284493966301881063e-01 -2.605566840602231982e-01
-4.149392532090465102e-01 -2.514549549066859013e-01
-3.999069247909368130e-01 -2.418976979035783181e-01
-3.835333944871200940e-01 -2.320064005743501523e-01
-3.660171327924683360e-01 -2.219072370240293413e-01
-3.475699665403049199e-01 -2.117284572117110186e-01
-3.284207445547595583e-01 -2.015999811994206026e-01
-3.088037372786999191e-01 -1.916512965881183861e-01
-2.889627410442844324e-01 -1.820090950318401235e-01
-2.691426825120745714e-01 -1.727962701745644203e-01
-2.495869755991960703e-01 -1.641284010134713700e-01
-2.305379973585898190e-01 -1.561161915812674383e-01
-2.122260421325293245e-01 -1.488582590957612251e-01
-1.948757304685047875e-01 -1.424451559883278262e-01
-1.786959824209516656e-01 -1.369556665822082853e-01
-1.638787690007171560e-01 -1.324558189306117018e-01
-1.505966546119611726e-01 -1.289982217697026312e-01
-1.390045499770719284e-01 -1.266228072966510965e-01
-1.292312453225001323e-01 -1.253545193518315615e-01
-1.213822338883573798e-01 -1.252050746254493030e-01
-1.155373457708170765e-01 -1.261707155269950753e-01
-1.117506213866994724e-01 -1.282348768318301580e-01
-1.100480737475661719e-01 -1.313675428691611080e-01
-1.104311273477365934e-01 -1.355253490503062208e-01
-1.128728534641611492e-01 -1.406531454129545389e-01
-1.173233474764557027e-01 -1.466851366156098069e-01
-1.237069624286618458e-01 -1.535449584259382660e-01
-1.319240774672805483e-01 -1.611485441006624830e-01
-1.418563182563268021e-01 -1.694036772418601455e-01
-1.533664277357703332e-01 -1.782126708405978865e-01
-1.662993784490558735e-01 -1.874727972394353848e-01
-1.804865232511260742e-01 -1.970791384989522554e-01
-1.957472833476056329e-01 -2.069246290033520952e-01
-2.118938339321493058e-01 -2.169023517595684569e-01
-2.287308379720672524e-01 -2.269070686837387774e-01
-2.460619308896954127e-01 -2.368365466740825209e-01
-2.636883806265793995e-01 -2.465916105859564944e-01
-2.814145133604618043e-01 -2.560792913548424754e-01
-2.990518397578482146e-01 -2.652133643456247025e-01
-3.164173580016357290e-01 -2.739136974669302282e-01
-3.333389814007594043e-01 -2.821105273284423287e-01
-3.496569903989070194e-01 -2.897402445821289363e-01
-3.652254572265373200e-01 -2.967509947043278640e-01
-3.799133622054787773e-01 -3.030998258053281824e-01
-3.936072276731554243e-01 -3.087541452039013756e-01
-4.062124820330823560e-01 -3.136909110258794819e-01
-4.176500776112140323e-01 -3.178983654576537088e-01
-4.278642831091045706e-01 -3.213739144697343453e-01
-4.368156163673932446e-01 -3.241241260718798478e-01
-4.444825313954972601e-01 -3.261645699461228620e-01
-4.508655555695020856e-01 -3.275207169031472687e-01
-4.559796791153267748e-01 -3.282244099903739998e-01
-4.598585894254553219e-01 -3.283147579507005864e-01
-4.625500376554342319e-01 -3.278373808628649022e-01
-4.641170973635705410e-01 -3.268426849329135742e-01
-4.646337522342741111e-01 -3.253860617297018587e-01
-4.641861230412874795e-01 -3.235256978558689323e-01
-4.628689589570702534e-01 -3.213223152860664178e-01
-4.607829040840411006e-01 -3.188381605898074622e-01
-4.580346872665655433e-01 -3.161365900113597971e-01
-4.547342881497147271e-01 -3.132792320574175893e-01
-4.509929769580590109e-01 -3.103285399495319674e-01
-4.469206810007819719e-01 -3.073426814312696376e-01
-4.426232184614360965e-01 -3.043794183676253873e-01
-4.382084010020443343e-01 -3.014926860416188292e-01
-4.337726413655583757e-01 -2.987314138376317429e-01
-4.294070540650870016e-01 -2.961418299036919222e-01
-4.251964059313812494e-01 -2.937648970247992986e-01
-4.212166855368143503e-01 -2.916375333854812069e-01
-4.175307802198733320e-01 -2.897904383963826880e-01
-4.141953093159290722e-01 -2.882511394196246579e-01
-4.112547438268644440e-01 -2.870404209204590606e-01
-4.087432410985066822e-01 -2.861751672453782258e-01
-4.066837566736909437e-01 -2.856672442195182238e-01
-4.050893788268957740e-01 -2.855235851373639777e-01
-4.039636368655183940e-01 -2.857476779708790215e-01
-4.033012523422140894e-01 -2.863387031579780473e-01
-4.030870807216520579e-01 -2.872919081546363995e-01
-4.032990042277710407e-01 -2.886002214588693771e-01
-4.039090246763240022e-01 -2.902522246590601984e-01
-4.048811168785397818e-01 -2.922359723311343527e-01
-4.061783150564200473e-01 -2.945362946269319271e-01
-4.077574434007993909e-01 -2.971366748788289991e-01
-4.095734717949088277e-01 -3.000191213481704366e-01
-4.115804484091168947e-01 -3.031643540427510497e-01
-4.137339163092555450e-01 -3.065536756728434731e-01
-4.159877972759866704e-01 -3.101659901823158871e-01
-4.182992597392212186e-01 -3.139818656421659027e-01
-4.206267391127722632e-01 -3.179804794642368537e-01
-4.229341973906796670e-01 -3.221415122563249245e-01
-4.251885600981918922e-01 -3.264451286961324028e-01
-4.273604401668163466e-01 -3.308703890075603282e-01
-4.294266993417939493e-01 -3.353975997959798838e-01
-4.313675036313706634e-01 -3.400071907433396823e-01
-4.331692296661651675e-01 -3.446784929212081128e-01
-4.348234758871942218e-01 -3.493921030208378409e-01
-4.363248626015809872e-01 -3.541267170692247168e-01
-4.376736704318407445e-01 -3.588627471662849677e-01
-4.388743461748218500e-01 -3.635781829818242050e-01
-4.399347465538751556e-01 -3.682514895723135728e-01
-4.408640367259650805e-01 -3.728603544228362154e-01
-4.416764473419584336e-01 -3.773809614995659034e-01
-4.423849998430974817e-01 -3.817893406397732114e-01
-4.430052172178929326e-01 -3.860593955632894425e-01
-4.435509564581456288e-01 -3.901659790636659020e-01
-4.440373541895453746e-01 -3.940806288145859426e-01
-4.444770939342135851e-01 -3.977761862052479058e-01
-4.448811259372220106e-01 -4.012234002995579973e-01
-4.452563311724829775e-01 -4.043928180488061686e-01
-4.456094257505980316e-01 -4.072548999296434213e-01
-4.459410478185671933e-01 -4.097794296961329574e-01
-4.462490954436673651e-01 -4.119366822484394342e-01
-4.465287258784289559e-01 -4.136980170485802244e-01
-4.467676884210297072e-01 -4.150350297043631231e-01
-4.469524745096885576e-01 -4.159207946283932089e-01
-4.470658579235614050e-01 -4.163309947684575851e-01
-4.470847584260114194e-01 -4.162424431690083804e-01
-4.469854792250446684e-01 -4.156356130106458879e-01
-4.467394624285074833e-01 -4.144931124204290773e-01
-4.463170555320628008e-01 -4.128025896204173817e-01
-4.456867952564076973e-01 -4.105542997759452084e-01
-4.448178556601660172e-01 -4.077439541870678252e-01
-4.436770627106743636e-01 -4.043716037455915013e-01
-4.422323375326532857e-01 -4.004424921035595886e-01
-4.404567719512268442e-01 -3.959672047587256549e-01
-4.383219740882231541e-01 -3.909617712362046249e-01
-4.358041555045697457e-01 -3.854474402348881945e-01
-4.328852910306818513e-01 -3.794524248254818044e-01
-4.295489027323856068e-01 -3.730087217825632795e-01
-4.257874546847974506e-01 -3.661548120777024518e-01
-4.215958059389600110e-01 -3.589340000347187032e-01
-4.169799835160886148e-01 -3.513949542509378632e-01
-4.119482330876100273e-01 -3.435902089941163529e-01
-4.065183973764341929e-01 -3.355766282685454516e-01
-4.007146072072358400e-01 -3.274144631882799916e-01
-3.945691142095562598e-01 -3.191667299524956758e-01
-3.881189765307315742e-01 -3.108985748141743777e-01
-3.814102013684629866e-01 -3.026769965890053204e-01
-3.744938590334361828e-01 -2.945683385616982286e-01
-3.674250058535356023e-01 -2.866404171988384264e-01
-3.602672725780242113e-01 -2.789587215283096389e-01
-3.530836801472708175e-01 -2.715875054836914271e-01
-3.459432341790231735e-01 -2.645878366369786017e-01
-3.389162076196243212e-01 -2.580174619367875399e-01
-3.320741798373461617e-01 -2.519297585236283110e-01
-3.254874922744355192e-01 -2.463732066373301721e-01
-3.192251756568305621e-01 -2.413904635460418224e-01
-3.133554633376631204e-01 -2.370173144633723195e-01
-3.079408414207340794e-01 -2.332832589179698046e-01
-3.030401961088116103e-01 -2.302097870744801988e-01
-2.987067563947162774e-01 -2.278115838570836105e-01
-2.949861248973292827e-01 -2.260944148420740707e-01
-2.919178406559582162e-01 -2.250565614081616872e-01
-2.895309160187121700e-01 -2.246882494078857595e-01
-2.878469387809309832e-01 -2.249711398653069239e-01
-2.868773551871973693e-01 -2.258797145483118773e-01
-2.866240847241967038e-01 -2.273808629665579339e-01
-2.870792138877616972e-01 -2.294339496818185165e-01
-2.882240433970810756e-01 -2.319927660448221629e-01
-2.900308839827941965e-01 -2.350045346330257856e-01
-2.924623024759489542e-01 -2.384119149997378229e-01
-2.954712259054879109e-01 -2.421531964323568598e-01
-2.990032929031445352e-01 -2.461628286483541761e-01
-3.029956726632883068e-01 -2.503737998255030628e-01
-3.073794705374138791e-01 -2.547164045354626261e-01
-3.120810513364112859e-01 -2.591216659024137003e-01
-3.170200799393623203e-01 -2.635204002689247593e-01
-3.221158477445656421e-01 -2.678456854999585190e-01
-3.272834531917827583e-01 -2.720318238258226939e-01
-3.324398449553704893e-01 -2.760179038513829175e-01
-3.375011400247397431e-01 -2.797472130125017165e-01
-3.423865620964812728e-01 -2.831669878754952130e-01
-3.470200629795572866e-01 -2.862325081330751586e-01
-3.513277604509657537e-01 -2.889037543914078077e-01
-3.552445292634751617e-01 -2.911487439728572268e-01
-3.587125910533537909e-01 -2.929427579790124803e-01
-3.616799394919880672e-01 -2.942692126490416005e-01
-3.641059849361199530e-01 -2.951191727674074006e-01
-3.659601102815959739e-01 -2.954921449406909262e-01
-3.672199316572634653e-01 -2.953960902867858174e-01
-3.678775785827996248e-01 -2.948461475867819592e-01
-3.679313239117623091e-01 -2.938650908035970177e-01
-3.673949222360268774e-01 -2.924830276749441627e-01
-3.662902075635407484e-01 -2.907368465343858066e-01
-3.646502895210484430e-01 -2.886692269182590254e-01
-3.625167863543413693e-01 -2.863270149689075561e-01
-3.599420657252914157e-01 -2.837627272753797669e-01
-3.569851099957523921e-01 -2.810310343940310429e-01
-3.537125901094456681e-01 -2.781904669008644082e-01
-3.501971900447961028e-01 -2.752991625690157651e-01
-3.465146571059617986e-01 -2.724170378751208377e-01
-3.427453907872471395e-01 -2.696029233986801388e-01
-3.389707225240452537e-01 -2.669132605683134929e-01
-3.352708206034936134e-01 -2.644030805819259644e-01
-3.317265731062354339e-01 -2.621224338357867611e-01
-3.284146841714121745e-01 -2.601186545774406556e-01
-3.254060244107049860e-01 -2.584313675630067753e-01
-3.227684085051154561e-01 -2.570960753514368036e-01
-3.205594391888556549e-01 -2.561403517722702916e-01
-3.188311283328470469e-01 -2.555857531527321869e-01
-3.176224207309834568e-01 -2.554446630758570036e-01
-3.169662844071972074e-01 -2.557231313863912447e-01
-3.168800098422918099e-01 -2.564186102503433484e-01
-3.173722372578172690e-01 -2.575195693173890632e-01
-3.184385330300137928e-01 -2.590084778322173098e-01
-3.200623163878031363e-01 -2.608590257543887958e-01
-3.222146962602896458e-01 -2.630375317929145584e-01
-3.248556042975325742e-01 -2.655044028691191382e-01
-3.279332728863807445e-01 -2.682138607909370087e-01
-3.313846188740383614e-01 -2.711141313101604333e-01
-3.351395707671096513e-01 -2.741499500090455177e-01
-3.391162092995378408e-01 -2.772622414982900407e-01
-3.432275389590244141e-01 -2.803890989344143825e-01
-3.473825626148050461e-01 -2.834681405254989572e-01
-3.514810726321929146e-01 -2.864351398259011305e-01
-3.554240758167347969e-01 -2.892277444958202270e-01
-3.591116749530600116e-01 -2.917848593227339582e-01
-3.624440963956961359e-01 -2.940486864465554628e-01
-3.653244990718618745e-01 -2.959647734834723320e-01
-3.676602491221423463e-01 -2.974840496579552185e-01
-3.693664051107093949e-01 -2.985630190774658521e-01
-3.703651436549027509e-01 -2.991648472819521398e-01
-3.705883176867962314e-01 -2.992599985277933361e-01
-3.699790300532000975e-01 -2.988268094880245918e-01
-3.684918791831776064e-01 -2.978522623896476262e-01
-3.660962391402273197e-01 -2.963319502865194299e-01
-3.627750229808860971e-01 -2.942702168445527344e-01
-3.585255495108968238e-01 -2.916808585644838914e-01
-3.533629196869369493e-01 -2.885863196829934751e-01
-3.473151555730580875e-01 -2.850177682243481558e-01
-3.404265024784077776e-01 -2.810152088470542764e-01
-3.327577477935403372e-01 -2.766256756923497484e-01
-3.243836712337019312e-01 -2.719041327657980567e-01
-3.153928497424082766e-01 -2.669113550646839417e-01
-3.058850207228305251e-01 -2.617137079872658423e-01
-2.959752562924341523e-01 -2.563829045523314254e-01
-2.857862153809050954e-01 -2.509932479920412574e-01
-2.754483992638045997e-01 -2.456217644641293385e-01
-2.651002878602041202e-01 -2.403467546668501820e-01
-2.548842373823604901e-01 -2.352458397814851665e-01
-2.449461539815537547e-01 -2.303963541498830203e-01
-2.354303193434025554e-01 -2.258727509701023706e-01
-2.264801573565657367e-01 -2.217448399945985971e-01
-2.182351888384664040e-01 -2.180788434387258834e-01
-2.108286277249650509e-01 -2.149348032353882443e-01
-2.043852391351021480e-01 -2.123650573398946084e-01
-1.990184489996630335e-01 -2.104144576125579480e-01
-1.948291947467382934e-01 -2.091192655502868980e-01
-1.919054654652662395e-01 -2.085060081665808529e-01
-1.903196265503399875e-01 -2.085912496109370573e-01
-1.901246545667678867e-01 -2.093815515548262951e-01
-1.913563502872950295e-01 -2.108726410573018295e-01
-1.940328030334057541e-01 -2.130491093791986590e-01
-1.981506480790382330e-01 -2.158849779488172527e-01
-2.036858829183122999e-01 -2.193443267667221086e-01
-2.105963535930806263e-01 -2.233807175427556801e-01
-2.188184835911293202e-01 -2.279380224154039236e-01
-2.282696947717689218e-01 -2.329514675269180601e-01
-2.388487489114001494e-01 -2.383476714808176189e-01
-2.504367448587222489e-01 -2.440471752991550669e-01
-2.628999074872581110e-01 -2.499635088879097189e-01
-2.760896889391726283e-01 -2.560059042364707937e-01
-2.898432539982402911e-01 -2.620791293958132928e-01
-3.039909278013507299e-01 -2.680869263288048199e-01
-3.183497762468707193e-01 -2.739304895212058000e-01
-3.327362583771961702e-01 -2.795123208499005196e-01
-3.469602667718733602e-01 -2.847366507267970470e-01
-3.608308869363653915e-01 -2.895101652166291450e-01
-3.741604251655288871e-01 -2.937448831863802012e-01
-3.867654139145737524e-01 -2.973583180626976907e-01
-3.984675714962251369e-01 -3.002748394598434012e-01
-4.090997957907418492e-01 -3.024267991037681291e-01
-4.185076089623247508e-01 -3.037554043791679259e-01
-4.265463541079793641e-01 -3.042133628792494382e-01
-4.330912849332428927e-01 -3.037618772935178346e-01
-4.380344177002676864e-01 -3.023756920943297399e-01
-4.412868335373356654e-01 -3.000399313773155496e-01
-4.427808764685583487e-01 -2.967527899404815428e-01
-4.424696857745508138e-01 -2.925245947035235439e-01
-4.403305129332306112e-01 -2.873776563156235087e-01
-4.363624716940929238e-01 -2.813468117282381664e-01
-4.305885886090619064e-01 -2.744784888035984860e-01
-4.230546227135731363e-01 -2.668302739929244161e-01
-4.138292751650019530e-01 -2.584706121902526355e-01
-4.030018691545227960e-01 -2.494769244709207079e-01
-3.906842723161473852e-01 -2.399365974335413432e-01
-3.770060552440080426e-01 -2.299436318947769287e-01
-3.621149931431865698e-01 -2.195990207034444475e-01
-3.461749498394879332e-01 -2.090089981132635388e-01
-3.293649437295650406e-01 -1.982838659075860377e-01
-3.118721491914158150e-01 -1.875364642231453494e-01
-2.938957917111235107e-01 -1.768805322272172242e-01
-2.756408000272057568e-01 -1.664296383577051341e-01
-2.573156312026191328e-01 -1.562956263285118219e-01
-2.391303866208320805e-01 -1.465875116100711639e-01
-2.212948708114636232e-01 -1.374095007786487188e-01
-2.040129302212567164e-01 -1.288599809955199571e-01
-1.874839847382273883e-01 -1.210303054453150257e-01
-1.718973971657044575e-01 -1.140044117034760413e-01
-1.574294288161574296e-01 -1.078560346533355835e-01
-1.442472479034963839e-01 -1.026500029692808541e-01
-1.324982026447964201e-01 -9.843922026736517950e-02
-1.223146738612871792e-01 -9.526670435021189487e-02
-1.138103612593704406e-01 -9.316232027838662610e-02
-1.070768629481943651e-01 -9.214439607293488377e-02
-1.021876972590655408e-01 -9.221937441071355324e-02
-9.919305967222924458e-02 -9.338084673140277514e-02
-9.811846961205995810e-02 -9.561036628449975927e-02
-9.897368363393488355e-02 -9.887824331158688584e-02
-1.017393260223106999e-01 -1.031431129344600184e-01
-1.063791061983184044e-01 -1.083530721720844664e-01
-1.128341556743689272e-01 -1.144462952430168323e-01
-1.210251767972710946e-01 -1.213520187197561079e-01
-1.308562146061795495e-01 -1.289912013349423237e-01
-1.422117615662318590e-01 -1.372776876977183369e-01
-1.549629426255074716e-01 -1.461200731590154289e-01
-1.689659360522690057e-01 -1.554212957803524087e-01
-1.840659416948896288e-01 -1.650812545991215130e-01
-2.000994478610854943e-01 -1.749980637029664443e-01
-2.168937998490694796e-01 -1.850677100361567129e-01
-2.342738466095936611e-01 -1.951878949760837978e-01
-2.520600246357697083e-01 -2.052568070191299887e-01
-2.700726688344690651e-01 -2.151757757120574543e-01
-2.881348340083513815e-01 -2.248499464384123292e-01
-3.060735621430991649e-01 -2.341893946793452419e-01
-3.237207430914177952e-01 -2.431098798847456666e-01
-3.409184890877944851e-01 -2.515345465464217667e-01
-3.575175505654721309e-01 -2.593934388335927266e-01
-3.733792900409147464e-01 -2.666256844925862790e-01
-3.883806631735793879e-01 -2.731786299594646805e-01
-4.024106427585728563e-01 -2.790086213654706104e-01
-4.153733125223982303e-01 -2.840822854797495634e-01
-4.271913786412069314e-01 -2.883759644083596085e-01
-4.378008797639683647e-01 -2.918754610301306784e-01
-4.471573325949099731e-01 -2.945762544288287876e-01
-4.552297175134503715e-01 -2.964839139492969622e-01
-4.620071292620919201e-01 -2.976122822572815907e-01
-4.674935227959579609e-01 -2.979851979497581405e-01
-4.717087585092234470e-01 -2.976338179696378927e-01
-4.746870355946807840e-01 -2.965977838327178429e-01
-4.764765067650292840e-01 -2.949233167585270654e-01
-4.771396925859806570e-01 -2.926629040182637809e-01
-4.767482835440033373e-01 -2.898748058711058118e-01
-4.753849837619921748e-01 -2.866211429906587727e-01
-4.731418234050202010e-01 -2.829688284476679083e-01
-4.701157267582767862e-01 -2.789864720028423228e-01
-4.664117880149177831e-01 -2.747456509948080217e-01
-4.621362230506144697e-01 -2.703184018632056040e-01
-4.573983574016255993e-01 -2.657761988316856838e-01
-4.523086697665834044e-01 -2.611912189722318534e-01
-4.469747112798266864e-01 -2.566327182671986895e-01
-4.415042872970242893e-01 -2.521684931114363537e-01
-4.359975531727686704e-01 -2.478627769532960323e-01
-4.305530564955044603e-01 -2.437764708056444352e-01
-4.252600305174271123e-01 -2.399656632325713190e-01
-4.202025723508386879e-01 -2.364820295580277454e-01
-4.154554561661120138e-01 -2.333724336816009326e-01
-4.110843506382094170e-01 -2.306767791537207568e-01
-4.071457679963622622e-01 -2.284307000452557856e-01
-4.036868004214607675e-01 -2.266628474608060884e-01
-4.007438124609827845e-01 -2.253959247300043323e-01
-3.983434127745576481e-01 -2.246469417400845936e-01
-3.965021389201409119e-01 -2.244256021729678363e-01
-3.952260282958907633e-01 -2.247373282329703237e-01
-3.945143263261223221e-01 -2.255804822008659893e-01
-3.943537454980392543e-01 -2.269478300163101092e-01
-3.947260963169376691e-01 -2.288278065789088045e-01
-3.956039986966833344e-01 -2.312029228152205906e-01
-3.969547181499372690e-01 -2.340515242393580719e-01
-3.987378100361350097e-01 -2.373479133343028846e-01
-4.009094888374938326e-01 -2.410622294385953990e-01
-4.034233823737663482e-01 -2.451620809492896791e-01
-4.062265547778072250e-01 -2.496112729926114604e-01
-4.092681310724585741e-01 -2.543719545507470703e-01
-4.124940397678531490e-01 -2.594040905979927425e-01
-4.158508470363964649e-01 -2.646659392317506909e-01
-4.192855506423723844e-01 -2.701151751658789069e-01
-4.227465464853651933e-01 -2.757083175850856827e-01
-4.261869193821756774e-01 -2.814017363087390478e-01
-4.295585595991363581e-01 -2.871520211917497623e-01
-4.328199170802818907e-01 -2.929162436299007077e-01
-4.359331146535979085e-01 -2.986516477948312209e-01
-4.388634886285911474e-01 -3.043166900974353939e-01
-4.415815424773354980e-01 -3.098717426091945892e-01
-4.440620938176271237e-01 -3.152771127338876989e-01
-4.462861714388824952e-01 -3.204958004776156111e-01
-4.482364502717880450e-01 -3.254918215673831550e-01
-4.499031166394549808e-01 -3.302317308875705737e-01
-4.512789453635346892e-01 -3.346830022554327377e-01
-4.523615006617057732e-01 -3.388160694449894317e-01
-4.531492906808544108e-01 -3.426022119787596187e-01
-4.536491848687513873e-01 -3.460163240939132523e-01
-4.538666041790688777e-01 -3.490343258909581192e-01
-4.538105763489574396e-01 -3.516338302126451043e-01
-4.534914064737460282e-01 -3.537959593473948838e-01
-4.529208383887614597e-01 -3.555031074571399219e-01
-4.521116539377700860e-01 -3.567393274976908835e-01
-4.510774007873064040e-01 -3.574922844506447372e-01
-4.498298584099159059e-01 -3.577505647532820965e-01
-4.483808931381332297e-01 -3.575055277219262861e-01
-4.467420725825144157e-01 -3.567509690939260070e-01
-4.449228824518562941e-01 -3.554825254923345002e-01
-4.429315842623118282e-01 -3.536984236732938491e-01
-4.407748454822288942e-01 -3.513998364489696602e-01
-4.384573432073647914e-01 -3.485892538934007301e-01
-4.359820000296890652e-01 -3.452727305057703977e-01
-4.333506814395284290e-01 -3.414590359816401244e-01
-4.305625558934614294e-01 -3.371583744072663702e-01
-4.276149453131120604e-01 -3.323852502214985072e-01
-4.245057503573969049e-01 -3.271557781411892907e-01
-4.212307947893645932e-01 -3.214894559617462177e-01
-4.177843735840652828e-01 -3.154083658662933942e-01
-4.141623494982420994e-01 -3.089377810166960003e-01
-4.103588923567297875e-01 -3.021054285349742963e-01
-4.063704227334012375e-01 -2.949422629614393832e-01
-4.021940986365182269e-01 -2.874811971989491566e-01
-3.978264018061944962e-01 -2.797583546104460139e-01
-3.932689462161778060e-01 -2.718123828753176152e-01
-3.885224505457433031e-01 -2.636834389840204129e-01
-3.835928628123136952e-01 -2.554146626583070900e-01
-3.784873915749915607e-01 -2.470506384149708246e-01
-3.732164144109624271e-01 -2.386375255648656157e-01
-3.677943722567900697e-01 -2.302225892305973798e-01
-3.622388441356718114e-01 -2.218541964443844772e-01
-3.565710834351574210e-01 -2.135810229340819877e-01
-3.508151664344265619e-01 -2.054522444131898218e-01
-3.450002819096621987e-01 -1.975161577801037016e-01
-3.391563839491095744e-01 -1.898205470536757089e-01
-3.333184075389947210e-01 -1.824121550347803100e-01
-3.275239012435887109e-01 -1.753355263240763406e-01
-3.218109379093549438e-01 -1.686338221019524353e-01
-3.162212390718016075e-01 -1.623467078457325186e-01
-3.107960410236109139e-01 -1.565111043481723363e-01
-3.055795266733444815e-01 -1.511605691809188301e-01
-3.006141707210880365e-01 -1.463244429330395613e-01
-2.959420689760503542e-01 -1.420280409122173793e-01
-2.916040292508109144e-01 -1.382912536806368553e-01
-2.876390683589785113e-01 -1.351299220946824142e-01
-2.840849714535376713e-01 -1.325544013472143012e-01
-2.809739765544592149e-01 -1.305687223192757151e-01
-2.783353180730160359e-01 -1.291728349348864879e-01
-2.761945620498806875e-01 -1.283600866689831033e-01
-2.745706408205184079e-01 -1.281179050359251559e-01
-2.734784495615852351e-01 -1.284289084081367549e-01
-2.729268774697063971e-01 -1.292702582476342454e-01
-2.729175343282064237e-01 -1.306131749850095169e-01
-2.734470682623257320e-01 -1.324245019862802519e-01
-2.745047007401966166e-01 -1.346662142475960611e-01
-2.760728498240033746e-01 -1.372962307408578664e-01
-2.781294173421407501e-01 -1.402685851833380404e-01
-2.806441336768082939e-01 -1.435340137391599435e-01
-2.835811048526171163e-01 -1.470411549559887676e-01
-2.869002795908608405e-01 -1.507355575004723780e-01
-2.905546595520100972e-01 -1.545623450982885894e-01
-2.944937353357617860e-01 -1.584656261237074037e-01
-2.986640740560634888e-01 -1.623895792368485747e-01
-3.030074537749676833e-01 -1.662788293148059759e-01
-3.074652951422454095e-01 -1.700793798496778586e-01
-3.119775881410413731e-01 -1.737397196147847933e-01
-3.164812146617582145e-01 -1.772108054402751209e-01
-3.209160485677980956e-01 -1.804469119933142796e-01
-3.252231519725010123e-01 -1.834067757847679947e-01
-3.293450467392379233e-01 -1.860529540444502972e-01
-3.332273718333810808e-01 -1.883534977610604177e-01
-3.368211869198184383e-01 -1.902818668668851687e-01
-3.400809161715308004e-01 -1.918171794502400718e-01
-3.429659767398154924e-01 -1.929445798911847698e-01
-3.454446106398585958e-01 -1.936558785655897175e-01
-3.474891557568474676e-01 -1.939486976374061311e-01
-3.490806314936475419e-01 -1.938270704770523323e-01
-3.502063031750479727e-01 -1.933018598588705228e-01
-3.508624629717221888e-01 -1.923891924284960586e-01
-3.510524376872271035e-01 -1.911120048682316552e-01
-3.507883226417924938e-01 -1.894977834395398519e-01
-3.500883139086515827e-01 -1.875794376240997319e-01
-3.489788818034658680e-01 -1.853948354087190387e-01
-3.474941396304286889e-01 -1.829852575786981017e-01
-3.456733296171344283e-01 -1.803952424142940270e-01
-3.435607427033766093e-01 -1.776723199115367580e-01
-3.412090435766789165e-01 -1.748659015520883653e-01
-3.386706532052446983e-01 -1.720262150360726827e-01
-3.360047667422937367e-01 -1.692038487225003274e-01
-3.332705697327703609e-01 -1.664492849683795739e-01
-3.305294269945657226e-01 -1.638111579168235465e-01
-3.278430036467435693e-01 -1.613363098389817007e-01
-3.252707173449992384e-01 -1.590689237132962286e-01
-3.228717671731674010e-01 -1.570493660525639767e-01
-3.207005769320775412e-01 -1.553137524184885487e-01
-3.188079474921455270e-01 -1.538932016572160943e-01
-3.172403106233603332e-01 -1.528138608976609691e-01
-3.160363805307289109e-01 -1.520958249137213114e-01
-3.152293066655892928e-01 -1.517526712631450114e-01
-3.148452976266006842e-01 -1.517918482513131717e-01
-3.149000057291301280e-01 -1.522136835487609419e-01
-3.154032079040095526e-01 -1.530121760128586028e-01
-3.163529540955178354e-01 -1.541739692827796826e-01
-3.177411505023124971e-01 -1.556794784032298484e-01
-3.195478325291115085e-01 -1.575027738237647912e-01
-3.217464069758476652e-01 -1.596112081744780475e-01
-3.242987916129900783e-01 -1.619671878864275272e-01
-3.271618697475454640e-01 -1.645274911879229529e-01
-3.302822890024738611e-01 -1.672447467126451093e-01
-3.336002112108897300e-01 -1.700674816108107279e-01
-3.370500031500950899e-01 -1.729413188437597393e-01
-3.405620828382898146e-01 -1.758097357485637890e-01
-3.440593521647336561e-01 -1.786144744977400389e-01
-3.474657564861601822e-01 -1.812971570475773730e-01
-3.507012146474723369e-01 -1.837998848024816334e-01
-3.536853398705593898e-01 -1.860657818447064293e-01
-3.563394533267276176e-01 -1.880407840587872137e-01
-3.585875195102228297e-01 -1.896735769266574279e-01
-3.603564617136129078e-01 -1.909171616538630212e-01
-3.615777780731148638e-01 -1.917295220947440315e-01
-3.621905600334530684e-01 -1.920739839852981246e-01
-3.621400852957455951e-01 -1.919203437442573990e-01
-3.613806371736533185e-01 -1.912454886540319865e-01
-3.598766146467565208e-01 -1.900333272966825415e-01
-3.576020309002910236e-01 -1.882761536879886399e-01
-3.545428105596913904e-01 -1.859740472331463390e-01
-3.506950562704036489e-01 -1.831349984840063561e-01
-3.460691947993682072e-01 -1.797761727167457857e-01
-3.406858573301233539e-01 -1.759224037288861231e-01
-3.345801072448133517e-01 -1.716066093844265394e-01
-3.277972437328275368e-01 -1.668692554879257217e-01
-3.203960401216376375e-01 -1.617589821338508704e-01
-3.124456095420492518e-01 -1.563299167796202149e-01
-3.040256532813435664e-01 -1.506430621809012327e-01
-2.952270995180426016e-01 -1.447644955546357193e-01
-2.861472207362477649e-01 -1.387645933260664988e-01
-2.768929153865833936e-01 -1.327171016736733433e-01
-2.675760135549902774e-01 -1.266984703423381931e-01
-2.583128265460024053e-01 -1.207865220616802793e-01
-2.492241720489386247e-01 -1.150591468383136001e-01
-2.404306415845317013e-01 -1.095937024377365149e-01
-2.320538736130844659e-01 -1.044651766538029491e-01
-2.242124198621582853e-01 -9.974588021059337117e-02
-2.170227199813301588e-01 -9.550364642886677302e-02
-2.105935724074059767e-01 -9.180090532244931933e-02
-2.050285943531764132e-01 -8.869417571604119865e-02
-2.004215580443578781e-01 -8.623244376115300758e-02
-1.968570469427521896e-01 -8.445700853164594957e-02
-1.944072919462535298e-01 -8.339984172485297165e-02
-1.931303466468778374e-01 -8.308376090361707655e-02
-1.930720851834100971e-01 -8.352155955243813212e-02
-1.942632896647903673e-01 -8.471569398180135713e-02
-1.967186842287096116e-01 -8.665801657509863976e-02
-2.004355191616769283e-01 -8.932950244714003840e-02
-2.053965892872428589e-01 -9.270044947379955935e-02
-2.115663491673671071e-01 -9.673090595957552218e-02
-2.188931921928430613e-01 -1.013703264583701996e-01
-2.273098849904849617e-01 -1.065589648853845633e-01
-2.367335871443773665e-01 -1.122273637894410647e-01
-2.470639166532916653e-01 -1.182984173664643063e-01
-2.581909057992801126e-01 -1.246868757577002246e-01
-2.699887185322746297e-01 -1.313015665697122580e-01
-2.823223021888767725e-01 -1.380454873486229583e-01
-2.950446813680646652e-01 -1.448177420140611127e-01
-3.080032342544928858e-01 -1.515145656731637092e-01
-3.210388381091552890e-01 -1.580301348042879861e-01
-3.339861565756190309e-01 -1.642585391828410291e-01
-3.466803699875984912e-01 -1.700951130780732901e-01
-3.589549473110688060e-01 -1.754375609968379934e-01
-3.706460950261764031e-01 -1.801870340779628266e-01
-3.815938985867318167e-01 -1.842509126455173230e-01
-3.916449705849776031e-01 -1.875417931333936694e-01
-4.006538906489712226e-01 -1.899807517433813597e-01
-4.084854852835239081e-01 -1.914976455390301480e-01
-4.150162662611136533e-01 -1.920318225857298167e-01
-4.201369296848402879e-01 -1.915338323429588707e-01
-4.237537624501667155e-01 -1.899657449935953923e-01
-4.257884497428875425e-01 -1.873019389940887292e-01
-4.261817532348291526e-01 -1.835294886397074998e-01
-4.248907200298775999e-01 -1.786487140464023404e-01
-4.218950101721438140e-01 -1.726733313457992358e-01
-4.171910544886471284e-01 -1.656304331234091654e-01
-4.107976144792367390e-01 -1.575604854008858524e-01
-4.027514828466484675e-01 -1.485167050829940827e-01
-3.931100592329507815e-01 -1.385653478525471216e-01
-3.819501824022291103e-01 -1.277840727104974372e-01
-3.693669896883368109e-01 -1.162618127844186056e-01
-3.554723355489211589e-01 -1.040978075289273747e-01
-3.403938446477268731e-01 -9.140065167633085186e-02
-3.242757904628256194e-01 -7.828654548431154825e-02
-3.072741499947749255e-01 -6.487900073319544103e-02
-2.895565509702029416e-01 -5.130625181303816867e-02
-2.712995146517792056e-01 -3.770108009768295687e-02
-2.526878925391599084e-01 -2.419852956585249321e-02
-2.339114707439111096e-01 -1.093456667890305850e-02
-2.151631605897054156e-01 1.955369424098876881e-03
-1.966359906611441499e-01 1.433844670797873588e-02
-1.785229778107029486e-01 2.608466095376191923e-02
-1.610122290303818426e-01 3.706981585353061326e-02
-1.442872543733505764e-01 4.717626893748472217e-02
-1.285234775443289956e-01 5.629391232414727997e-02
-1.138844050359583970e-01 6.432253354492127595e-02
-1.005255331267867619e-01 7.117170056751133400e-02
-8.858629036353074526e-02 7.676275214731537178e-02
-7.819151448535016646e-02 8.102948483062068219e-02
-6.944986919750976984e-02 8.391842247340572380e-02
-6.245402422223194500e-02 8.538999311521169866e-02
-5.727449900191305260e-02 8.541904896379114154e-02
-5.396735313049617205e-02 8.399448080439933517e-02
-5.256506789658277334e-02 8.112032606311991856e-02
-5.308246309020669268e-02 7.681437223098448730e-02
-5.551287786698817783e-02 7.110939883089140157e-02
-5.983199831236103022e-02 6.405195996082610477e-02
-6.599438944906931004e-02 5.570178269274560917e-02
-7.393674603931232880e-02 4.613145571601615785e-02
-8.357899184303400897e-02 3.542531445417116537e-02
-9.482298256921530000e-02 2.367880696149736799e-02
-1.075562769031155747e-01 1.099678114131517198e-02
-1.216525377932930474e-01 -2.506811610291721955e-03
-1.369730491470479705e-01 -1.671127557883745826e-02
-1.533684200167330369e-01 -3.148944238027951564e-02
-1.706806725635897637e-01 -4.671018409247044978e-02
-1.887454922279469538e-01 -6.223896368373976751e-02
-2.073927745780217990e-01 -7.793967164038091699e-02
-2.264502603417539450e-01 -9.367624948032264587e-02
-2.457443012926760206e-01 -1.093141718570984633e-01
-2.651033407513122553e-01 -1.247215054332651146e-01
-2.843570960429799843e-01 -1.397707572961007227e-01
-3.033412659567306102e-01 -1.543401237196449227e-01
-3.218974027057113219e-01 -1.683144560411110879e-01
-3.398758266990442034e-01 -1.815868775756643572e-01
-3.571364824385112047e-01 -1.940594759180802598e-01
-3.735493838958292012e-01 -2.056446149301238702e-01
-3.889979196956009355e-01 -2.162652199410780296e-01
-4.033784995689897457e-01 -2.258560381439579101e-01
-4.166010341730089217e-01 -2.343639117098906821e-01
-4.285908069248245411e-01 -2.417480983203654232e-01
-4.392883925234453146e-01 -2.479808240020224264e-01
-4.486498442101003459e-01 -2.530471682607935979e-01
-4.566457413866391590e-01 -2.569447178727534697e-01
-4.632647720803225733e-01 -2.596843562774345804e-01
-4.685083715403444149e-01 -2.612886655794133262e-01
-4.723936274184885042e-01 -2.617924415482407174e-01
-4.749524247026688517e-01 -2.612418133990889180e-01
-4.762291387510181884e-01 -2.596930228796919815e-01
-4.762805757488262071e-01 -2.572124001777287838e-01
-4.751761152817963740e-01 -2.538751794918082116e-01
-4.729942960632733118e-01 -2.497639993614420850e-01
-4.698226368409653686e-01 -2.449686371161694243e-01
-4.657571325777873916e-01 -2.395841973318833251e-01
-4.608997996874497072e-01 -2.337102031657570245e-01
-4.553572591566277805e-01 -2.274498317569943195e-01
-4.492402839798033676e-01 -2.209076553286069000e-01
-4.426604347464163647e-01 -2.141892638111985714e-01
-4.357315196919506750e-01 -2.074001583531369930e-01
-4.285653844339853413e-01 -2.006436353871927369e-01
-4.212725980175004437e-01 -1.940206855505176020e-01
-4.139602994514069989e-01 -1.876281826500146854e-01
-4.067307656228639212e-01 -1.815587114517850653e-01
-3.996810652326838742e-01 -1.758982749554786340e-01
-3.929015241253546176e-01 -1.707270428520856753e-01
-3.864757461602866262e-01 -1.661171734889120011e-01
-3.804784271290477249e-01 -1.621331803434735708e-01
-3.749758206297141849e-01 -1.588307353955498713e-01
-3.700251861376611107e-01 -1.562563986165636520e-01
-3.656731882916580134e-01 -1.544475282243670256e-01
-3.619590957027392086e-01 -1.534318025912774219e-01
-3.589092860768701154e-01 -1.532271184526174945e-01
-3.565415348938693052e-01 -1.538413347189535318e-01
-3.548647711489039125e-01 -1.552731896085974006e-01
-3.538777085456562554e-01 -1.575117322041242607e-01
-3.535694871126069949e-01 -1.605367511994256480e-01
-3.539212502483895517e-01 -1.643196254207570095e-01
-3.549054479380603366e-01 -1.688232359734823385e-01
-3.564876931218709522e-01 -1.740028589362221378e-01
-3.586271653080374544e-01 -1.798070859550456035e-01
-3.612762238707165618e-01 -1.861777059091173359e-01
-3.643822845727252013e-01 -1.930511883618858393e-01
-3.678882641970078193e-01 -2.003592370313354298e-01
-3.717342032000370833e-01 -2.080295776622468062e-01
-3.758568843010561822e-01 -2.159868615031859673e-01
-3.801915002909785901e-01 -2.241534752780987572e-01
-3.846724992388939057e-01 -2.324503633019235349e-01
-3.892337711155668400e-01 -2.407980002976911893e-01
-3.938102435548458402e-01 -2.491173624911346973e-01
-3.983381714939954188e-01 -2.573299819551599921e-01
-4.027557074264924708e-01 -2.653599674978644463e-01
-4.070039802680898156e-01 -2.731335035051841720e-01
-4.110277210540142501e-01 -2.805803537520047408e-01
-4.147753005163803408e-01 -2.876341238415804358e-01
-4.181990543239375024e-01 -2.942330245496149743e-01
-4.212566782762480755e-01 -3.003201598767563096e-01
-4.239105238033593070e-01 -3.058440548123143587e-01
-4.261290887490391532e-01 -3.107594301779110224e-01
-4.278849392363894277e-01 -3.150266633237115976e-01
-4.291569234244611564e-01 -3.186128058108856353e-01
-4.299303841181262853e-01 -3.214913823851752173e-01
-4.301945571922916600e-01 -3.236424093198112528e-01
-4.299462578892327413e-01 -3.250529505032810906e-01
-4.291854359989504819e-01 -3.257161055207881684e-01
-4.279192233201515316e-01 -3.256320393310539463e-01
-4.261584720350642397e-01 -3.248066703934563981e-01
-4.239193226060589126e-01 -3.232525081049213989e-01
-4.212226130597724882e-01 -3.209876799484623899e-01
-4.180919122525509901e-01 -3.180357316711722171e-01
-4.145562065250953943e-01 -3.144255158841654518e-01
-4.106464370410196074e-01 -3.101905515962208870e-01
-4.063967634899749992e-01 -3.053684766775997539e-01
-4.018445464613956131e-01 -3.000009506439960671e-01
-3.970281087165643541e-01 -2.941329666983438229e-01
-3.919875302494901792e-01 -2.878121099097499247e-01
-3.867647368085991855e-01 -2.810886447958706458e-01
-3.814020633201797295e-01 -2.740143551918808318e-01
-3.759415416215612926e-01 -2.666423065672646753e-01
-3.704260968027501821e-01 -2.590266151393308403e-01
-3.648980861392674968e-01 -2.512214040118122549e-01
-3.593981651177113879e-01 -2.432806248970852681e-01
-3.539668153803723905e-01 -2.352575666601693927e-01
-3.486416057252073597e-01 -2.272044298962250519e-01
-3.434604483916671724e-01 -2.191718297710850971e-01
-3.384569160165936119e-01 -2.112083817540835462e-01
-3.336635094097440413e-01 -2.033603254592876441e-01
-3.291091532677353215e-01 -1.956713319809576523e-01
-3.248205271725177479e-01 -1.881820302305214909e-01
-3.208208618194121065e-01 -1.809298867060298854e-01
-3.171304936867678226e-01 -1.739488415065554572e-01
-3.137660895868716326e-01 -1.672692638966214729e-01
-3.107400754044054025e-01 -1.609175114925924799e-01
-3.080626709658292883e-01 -1.549163434849785692e-01
-3.057391725154637863e-01 -1.492842836047325317e-01
-3.037715066021374755e-01 -1.440358909051136505e-01
-3.021576991049698679e-01 -1.391818621252888799e-01
-3.008929707888428062e-01 -1.347286402936491712e-01
-2.999672136029110647e-01 -1.306789198361871518e-01
-2.993676908979612250e-01 -1.270315367125574579e-01
-2.990782942587644766e-01 -1.237817703292853483e-01
-2.990788791962434856e-01 -1.209214087146679995e-01
-2.993463769411865427e-01 -1.184388131435013397e-01
-2.998553080256020631e-01 -1.163194020480881330e-01
-3.005765688579128403e-01 -1.145459128402604859e-01
-3.014791610216254747e-01 -1.130985181040553428e-01
-3.025295075227695252e-01 -1.119551024746052031e-01
-3.036922904353299701e-01 -1.110916731252224177e-01
-3.049306715957318947e-01 -1.104827204015512154e-01
-3.062069913703903135e-01 -1.101016293809816138e-01
-3.074824559200436958e-01 -1.099208128799788881e-01
-3.087182126239856328e-01 -1.099121775521522681e-01
-3.098761754813378899e-01 -1.100475923351441065e-01
-3.109171050919586343e-01 -1.102989822761534927e-01
-3.118049515819074080e-01 -1.106390304859608958e-01
-3.125040302317261820e-01 -1.110411846316817219e-01
-3.129808012946011520e-01 -1.114802570666015430e-01
-3.132046110661296789e-01 -1.119324589090833350e-01
-3.131475560993953189e-01 -1.123760852773194180e-01
-3.127854756827860294e-01 -1.127913172043467360e-01
-3.120976538905422815e-01 -1.131609148588762215e-01
-3.110677322669675449e-01 -1.134702508384625858e-01
-3.096840233088528627e-01 -1.137073032836939945e-01
-3.079400972162691374e-01 -1.138631236378160466e-01
-3.058346182451368578e-01 -1.139317945225564871e-01
-3.033706631160925093e-01 -1.139106038874772020e-01
-3.005587832429461037e-01 -1.138000126339275830e-01
-2.974135686336292772e-01 -1.136035375911938067e-01
-2.939568306925853802e-01 -1.133280077672294550e-01
-2.902140936648989200e-01 -1.129832097123730089e-01
-2.862188512953066644e-01 -1.125818420041677509e-01
-2.820077150034387969e-01 -1.121394031661404472e-01
-2.776239662867796554e-01 -1.116738077593384393e-01
-2.731158347288777932e-01 -1.112053973746025964e-01
-2.685343562972353770e-01 -1.107564102679498702e-01
-2.639358755401947088e-01 -1.103506121632638060e-01
-2.593794561906184182e-01 -1.100132945143888347e-01
-2.549273444186178073e-01 -1.097704837990645388e-01
-2.506429129265660971e-01 -1.096486856877274541e-01
-2.465917880381403859e-01 -1.096744566373596547e-01
-2.428390796900775916e-01 -1.098740353794921132e-01
-2.394503264269275400e-01 -1.102725712282054960e-01
-2.364891262491451707e-01 -1.108941081779238613e-01
-2.340176545913781048e-01 -1.117607375068318670e-01
-2.320944625331514410e-01 -1.128922728728799646e-01
-2.307748908925943976e-01 -1.143059864001640114e-01
-2.301081689947285513e-01 -1.160157745863681922e-01
-2.301396449559743040e-01 -1.180323424253064274e-01
-2.309066557567019673e-01 -1.203620661216555365e-01
-2.324399703096364511e-01 -1.230075002936694833e-01
-2.347626214954006696e-01 -1.259665884075771569e-01
-2.378890708488858863e-01 -1.292323727651766840e-01
-2.418241177457085833e-01 -1.327933926925385644e-01
-2.465635810458880750e-01 -1.366328277905412558e-01
-2.520937507360698770e-01 -1.407290103162843475e-01
-2.583900941195237388e-01 -1.450552314921330632e-01
-2.654179611954803897e-01 -1.495795839718173370e-01
-2.731329738499989612e-01 -1.542656956706152105e-01
-2.814805079592427872e-01 -1.590724341010418819e-01
-2.903966050723597037e-01 -1.639544827920006720e-01
-2.998071504151350042e-01 -1.688625397219554458e-01
-3.096303673103936172e-01 -1.737437891804991530e-01
-3.197758962191853960e-01 -1.785425198354446685e-01
-3.301450705114831186e-01 -1.832004791254910614e-01
-3.406352461769180384e-01 -1.876577384497509771e-01
-3.511359601358419180e-01 -1.918529799415904513e-01
-3.615342966904757094e-01 -1.957244747465556045e-01
-3.717130873539701841e-01 -1.992108366574300293e-01
-3.815547670555226589e-01 -2.022515625550893315e-01
-3.909405551561395686e-01 -2.047880216978097134e-01
-3.997525770140599732e-01 -2.067640398574853988e-01
-4.078759380694107484e-01 -2.081267705728622741e-01
-4.151996314448785363e-01 -2.088275908177927298e-01
-4.216173984211549763e-01 -2.088225743313360805e-01
-4.270300387281091292e-01 -2.080733873007989954e-01
-4.313467348692353598e-01 -2.065479258489786585e-01
-4.344853931863393304e-01 -2.042209601697618782e-01
-4.363751826482934471e-01 -2.010745511188876955e-01
-4.369564479478427743e-01 -1.970986472894694919e-01
-4.361821600572824420e-01 -1.922915659486962026e-01
-4.340190247113331345e-01 -1.866600884186390141e-01
-4.304478148994675402e-01 -1.802198422827238355e-01
-4.254645589106187398e-01 -1.729954682868393989e-01
-4.190800557052367092e-01 -1.650204523160627990e-01
-4.113207800407386872e-01 -1.563372438402763631e-01
-4.022284316478467181e-01 -1.469969472683639589e-01
-3.918607299293688229e-01 -1.370591908382822466e-01
-3.802895625621500741e-01 -1.265913444434401125e-01
-3.676020591000159210e-01 -1.156685377299891959e-01
-3.538987507799465360e-01 -1.043725123269480665e-01
-3.392935766167619049e-01 -9.279137041228900651e-02
-3.239117779224405247e-01 -8.101854116146030294e-02
-3.078898302328710868e-01 -6.915182079454607056e-02
-2.913732072823435604e-01 -5.729269570169320813e-02
-2.745156796246205899e-01 -4.554508674328749257e-02
-2.574771869929137758e-01 -3.401446478189835282e-02
-2.404222874473772031e-01 -2.280649207390218064e-02
-2.235176126322755141e-01 -1.202616711348908525e-02
-2.069319266924951883e-01 -1.776503126619744227e-03
-1.908328306501578808e-01 7.842642471859831085e-03
-1.753845666388730296e-01 1.673547492831780475e-02
-1.607474424483792963e-01 2.481170439899461552e-02
-1.470750585176958392e-01 3.198733564317213229e-02
-1.345126539163322144e-01 3.818585069214458505e-02
-1.231955986283973931e-01 4.333905536304864803e-02
-1.132478919589128968e-01 4.738798352972638933e-02
-1.047804048200686455e-01 5.028369416252448376e-02
-9.788950815641431213e-02 5.198782933751795732e-02
-9.265641505487885732e-02 5.247326554207137200e-02
-8.914579021034986506e-02 5.172457318256480641e-02
-8.740392122282887588e-02 4.973815546410471911e-02
-8.746086344783846056e-02 4.652262968462342330e-02
-8.932673214777629711e-02 4.209863767632104209e-02
-9.299462474023487135e-02 3.649882788627586971e-02
-9.843767799527330942e-02 2.976772917247394457e-02
-1.056115272050959369e-01 2.196112079825483787e-02
-1.144536637269646800e-01 1.314566333866010878e-02
-1.248852723295182238e-01 3.398232881317699971e-03
-1.368100602331616678e-01 -7.194920863339180142e-03
-1.501174269197878830e-01 -1.853913915158742626e-02
-1.646826755135746834e-01 -3.053212945760828620e-02
-1.803686348386139560e-01 -4.306534635488448032e-02
-1.970271879168873641e-01 -5.602489110174155990e-02
-2.145007991020184135e-01 -6.929302023620184658e-02
-2.326252358611425597e-01 -8.274927247867207292e-02
-2.512304090424378189e-01 -9.627197967676630330e-02
-2.701422293776935546e-01 -1.097394066653165495e-01
-2.891859873142725856e-01 -1.230312882897024729e-01
-3.081866435876398636e-01 -1.360301445740113302e-01
-3.269724075302194444e-01 -1.486226310810962181e-01
-3.453754652064788822e-01 -1.607007044446909505e-01
-3.632340793184492544e-01 -1.721630659055904400e-01
-3.803954177492484545e-01 -1.829160135822805733e-01
-3.967161608400689987e-01 -1.928748186401948728e-01
-4.120642348014811329e-01 -2.019643857343234039e-01
-4.263208419560235440e-01 -2.101202935327592114e-01
-4.393805755883491426e-01 -2.172893987732973931e-01
-4.511540074653564991e-01 -2.234304098027033170e-01
-4.615670460069796199e-01 -2.285143469654798698e-01
-4.705629004042116148e-01 -2.325248380425542494e-01
-4.781015013458803642e-01 -2.354581340335149264e-01
-4.841606573622644349e-01 -2.373232449496817109e-01
-4.887346252332462893e-01 -2.381415688665643737e-01
-4.918358491547289990e-01 -2.379467671577184529e-01
-4.934935393818634664e-01 -2.367840733170855083e-01
-4.937523096204756712e-01 -2.347097902817672221e-01
-4.926728281302548695e-01 -2.317905148762334500e-01
-4.903298812692920006e-01 -2.281022172302540896e-01
-4.868113636038787773e-01 -2.237292812275251674e-01
-4.822170925835288502e-01 -2.187634305744362573e-01
-4.766570849514020769e-01 -2.133025377720864091e-01
-4.702506241066191639e-01 -2.074492511454981425e-01
-4.631232829224938841e-01 -2.013099043169006841e-01
-4.554071303030412521e-01 -1.949930371271774432e-01
-4.472365736754624344e-01 -1.886080501561668565e-01
-4.387490873986993334e-01 -1.822639044822171039e-01
-4.300808849457652405e-01 -1.760676299920798937e-01
-4.213678921506761599e-01 -1.701231975701573973e-01
-4.127408835167941104e-01 -1.645301611336166259e-01
-4.043263496714862293e-01 -1.593824177998349745e-01
-3.962442198478590694e-01 -1.547671197706963764e-01
-3.886054442861036629e-01 -1.507636685864297832e-01
-3.815125184995419305e-01 -1.474427092005945183e-01
-3.750566388129067952e-01 -1.448655727090345513e-01
-3.693173747419104536e-01 -1.430831006315461396e-01
-3.643617692967389687e-01 -1.421357268411579389e-01
-3.602439072767467665e-01 -1.420526145555695285e-01
-3.570049187494812593e-01 -1.428516211349002141e-01
-3.546708129315629954e-01 -1.445390142398519928e-01
-3.532545792307572041e-01 -1.471097981022508050e-01
-3.527554917278746260e-01 -1.505475523574965058e-01
-3.531585182183744620e-01 -1.548251217884016873e-01
-3.544368673564927130e-01 -1.599047888952795093e-01
-3.565509701954480692e-01 -1.657389208100352729e-01
-3.594495436641665931e-01 -1.722708321832804867e-01
-3.630711097821268662e-01 -1.794356030359204046e-01
-3.673447973160773872e-01 -1.871605856004081025e-01
-3.721913680682049086e-01 -1.953671311315952064e-01
-3.775253571469280311e-01 -2.039709551415036792e-01
-3.832550733238888618e-01 -2.128837069699072437e-01
-3.892853248234651731e-01 -2.220140090731893834e-01
-3.955182589917300429e-01 -2.312685410903118910e-01
-4.018547368613805126e-01 -2.405533916615780754e-01
-4.081961197291028576e-01 -2.497751069496209064e-01
-4.144458204116662770e-01 -2.588420149172308560e-01
-4.205099347237282181e-01 -2.676650342454143239e-01
-4.262994120016695421e-01 -2.761591896944977087e-01
-4.317310475267520098e-01 -2.842440042951110413e-01
-4.367279406165683886e-01 -2.918450899459238967e-01
-4.412211074805722499e-01 -2.988943878905114260e-01
-4.451503302547667462e-01 -3.053311989653706982e-01
-4.484649415977092213e-01 -3.111025995780345443e-01
-4.511234683243925958e-01 -3.161641394590349874e-01
-4.530952427702852892e-01 -3.204799807413774571e-01
-4.543599262672545214e-01 -3.240233623612887026e-01
-4.549077732473996716e-01 -3.267764435063131856e-01
-4.547393110930926796e-01 -3.287304288887840098e-01
-4.538658898494082883e-01 -3.298856486129758681e-01
-4.523079803458258663e-01 -3.302509352426484246e-01
-4.500954107731074405e-01 -3.298434706999255894e-01
-4.472670386495588013e-01 -3.286882706788883945e-01
-4.438692356619149959e-01 -3.268176147650203034e-01
-4.399554345294502400e-01 -3.242704538583898732e-01
-4.355847493751542898e-01 -3.210916490845650006e-01
-4.308216117095378661e-01 -3.173311942040787370e-01
-4.257336714534651900e-01 -3.130433604694100591e-01
-4.203917954293603931e-01 -3.082859645133742554e-01
-4.148678265517297126e-01 -3.031191506855027695e-01
-4.092339426793544788e-01 -2.976049464283486712e-01
-4.035619449084143495e-01 -2.918059083770331852e-01
-3.979211960436233597e-01 -2.857847728757759165e-01
-3.923782685048032848e-01 -2.796031677077109867e-01
-3.869957034198775458e-01 -2.733208744615511776e-01
-3.818309671629340762e-01 -2.669953206460378703e-01
-3.769364417777557597e-01 -2.606808235191221401e-01
-3.723572375846908034e-01 -2.544277786597755608e-01
-3.681322362550307203e-01 -2.482824375934072902e-01
-3.642929534206948983e-01 -2.422860809171636931e-01
-3.608624145197761313e-01 -2.364752026969546006e-01
-3.578567673246620950e-01 -2.308808249377558297e-01
-3.552834765491021396e-01 -2.255285500691345535e-01
-3.531425285615044651e-01 -2.204382924514178554e-01
-3.514260121437320916e-01 -2.156246764463014831e-01
-3.501191022647210382e-01 -2.110968275081878676e-01
-3.492000856048664281e-01 -2.068587667068235714e-01
-3.486405363655709633e-01 -2.029095140532971298e-01
-3.484073102324963256e-01 -1.992437858791767935e-01
-3.484614096366293601e-01 -1.958520300609589149e-01
-3.487610722367221472e-01 -1.927211489343281514e-01
-3.492604157200649984e-01 -1.898352000969659448e-01
-3.499120201630278038e-01 -1.871754058225785222e-01
-3.506667133122275959e-01 -1.847211943403626044e-01
-3.514758122333854762e-01 -1.824508552098668135e-01
-3.522903725850740075e-01 -1.803417895332146414e-01
-3.530639839525563928e-01 -1.783713905192843008e-01
-3.537521944301387777e-01 -1.765173416411668084e-01
-3.543143368757641909e-01 -1.747585265570214819e-01
-3.547131530791820531e-01 -1.730753489356801622e-01
-3.549169252517739293e-01 -1.714497622472559990e-01
-3.548991296531945339e-01 -1.698666463826889461e-01
-3.546384601709973161e-01 -1.683131412123307080e-01
-3.541208571907190628e-01 -1.667793899697517790e-01
-3.533379482808751137e-01 -1.652588293016390431e-01
-3.522887464558486781e-01 -1.637479254007830343e-01
-3.509782842763928823e-01 -1.622465810313627743e-01
-3.494182073604278904e-01 -1.607578612830178333e-01
-3.476269945584482546e-01 -1.592879173723101005e-01
-3.456287268394839240e-01 -1.578459573589802989e-01
-3.434529557218239937e-01 -1.564438346208603670e-01
-3.411345745428669973e-01 -1.550956266665092509e-01
-3.387126180006134191e-01 -1.538178257729048704e-01
-3.362295570123401411e-01 -1.526279988719674574e-01
-3.337312234910282394e-01 -1.515452661557557812e-01
-3.312651685349906061e-01 -1.505892098592205020e-01
-3.288799060582819345e-01 -1.497795565853098643e-01
-3.266242493824658144e-01 -1.491359043490431968e-01
-3.245465356994390316e-01 -1.486766645182575064e-01
-3.226933380538267726e-01 -1.484189849591943389e-01
-3.211086645658346450e-01 -1.483784055738962271e-01
-3.198333214759953025e-01 -1.485677662948353128e-01
-3.189038511501349760e-01 -1.489973153993264521e-01
-3.183519495275803912e-01 -1.496745034860943457e-01
-3.182041675701040018e-01 -1.506029376217631055e-01
-3.184804416282269734e-01 -1.517829104200516255e-01
-3.191945825945103343e-01 -1.532106713686394173e-01
-3.203535014287224314e-01 -1.548788897432467337e-01
-3.219569493928118864e-01 -1.567758923313371799e-01
-3.239974930348353266e-01 -1.588863154022937541e-01
-3.264606649034766384e-01 -1.611909754780987691e-01
-3.293250766016663778e-01 -1.636670888999572637e-01
-3.325620844388487707e-01 -1.662884294673660501e-01
-3.361373964353638333e-01 -1.690259541407157784e-01
-3.400101620358855214e-01 -1.718479640268154029e-01
-3.441347392512891790e-01 -1.747206497864851604e-01
-3.484607781591783637e-01 -1.776084305258809892e-01
-3.529335992944978018e-01 -1.804749073429272599e-01
-3.574965301857834232e-01 -1.832829844523213292e-01
-3.620901364528738564e-01 -1.859956552950879916e-01
-3.666538186060275262e-01 -1.885768657194032971e-01
-3.711272688349480653e-01 -1.909915477526138439e-01
-3.754504183692330410e-01 -1.932068157032298950e-01
-3.795659006241596245e-01 -1.951921050695759052e-01
-3.834180273768004743e-01 -1.969200390104659526e-01
-3.869558632012977673e-01 -1.983666541635314418e-01
-3.901322624057436683e-01 -1.995121735177943778e-01
-3.929057142839919581e-01 -2.003410246070278233e-01
-3.952408460099987031e-01 -2.008425384140706815e-01
-3.971087166419189352e-01 -2.010106231715956260e-01
-3.984879488994215180e-01 -2.008449219118175200e-01
-3.993644764619267984e-01 -2.003497036186746016e-01
-3.997320612352262548e-01 -1.995349265798306848e-01
-3.995926765650555379e-01 -1.984153594615952476e-01
-3.989563372753859860e-01 -1.970108154933546685e-01
-3.978408829704821459e-01 -1.953457676496795636e-01
-3.962714423914979744e-01 -1.934491878014751032e-01
-3.942813160116215854e-01 -1.913535073289935884e-01
-3.919096723134599669e-01 -1.890952261199042583e-01
-3.892026666997719375e-01 -1.867130630331726160e-01
-3.862109754446933496e-01 -1.842485996998791675e-01
-3.829908862414315163e-01 -1.817443697608436548e-01
-3.796017581675594776e-01 -1.792443921470500967e-01
-3.761058153286372940e-01 -1.767924922295336931e-01
-3.725673213876388168e-01 -1.744322435353773404e-01
-3.690510462712371376e-01 -1.722055944386176041e-01
-3.656211329165067192e-01 -1.701529145186564118e-01
-3.623408324847137707e-01 -1.683115731376962076e-01
-3.592704720833583831e-01 -1.667160893178428194e-01
-3.564668911054145184e-01 -1.653965838881402417e-01
-3.539825175715663463e-01 -1.643791552995620686e-01
-3.518643850287599406e-01 -1.636848015743267160e-01
-3.501533156552938397e-01 -1.633294676939462398e-01
-3.488830322816490748e-01 -1.633231793872526594e-01
-3.480799065364514888e-01 -1.636704783056749102e-01
-3.477623579645945373e-01 -1.643698912310266880e-01
-3.479400295456925862e-01 -1.654140799364829106e-01
-3.486144102161662373e-01 -1.667898574914595811e-01
-3.497780106811094192e-01 -1.684783365723320769e-01
-3.514149712992722940e-01 -1.704553400703028854e-01
-3.535009677033489894e-01 -1.726918631744413235e-01
-3.560035020761664337e-01 -1.751540911100537279e-01
-3.588829586423722406e-01 -1.778045083852205221e-01
-3.620923287818858527e-01 -1.806021577234988018e-01
-3.655788635408955267e-01 -1.835033827868550182e-01
-3.692840953998478004e-01 -1.864629035857643669e-01
-3.731458923578995224e-01 -1.894339102449003331e-01
-3.770979623336055409e-01 -1.923695419856237820e-01
-3.810729864780250664e-01 -1.952232667629039686e-01
-3.850015477869066505e-01 -1.979499439093127255e-01
-3.888148435320515350e-01 -2.005066332279058505e-01
-3.924455211807276744e-01 -2.028529034494626349e-01
-3.958281531502803041e-01 -2.049524614245456788e-01
-3.989019382635120015e-01 -2.067728455299960855e-01
-4.016098188213848563e-01 -2.082868210124032837e-01
-4.039011910307646613e-01 -2.094721802050105719e-01
-4.057316920436094820e-01 -2.103131086495213797e-01
-4.070648831174638604e-01 -2.107994934867056247e-01
-4.078723884523835497e-01 -2.109281369777661896e-01
-4.081346055718649279e-01 -2.107018285544988156e-01
-4.078408999697863968e-01 -2.101305243235617737e-01
-4.069907936440937402e-01 -2.092306015059629265e-01
-4.055932380476790500e-01 -2.080241655283726065e-01
-4.036662415209026911e-01 -2.065399158865967588e-01
-4.012377869604230596e-01 -2.048117487821955462e-01
-3.983447737679465805e-01 -2.028786777106195427e-01
-3.950323411973786780e-01 -2.007839371874866607e-01
-3.913538407198975388e-01 -1.985743961206451191e-01
-3.873687980014972609e-01 -1.962997619076593814e-01
-3.831435640518722208e-01 -1.940119290892145520e-01
-3.787490054084106106e-01 -1.917635374782035163e-01
-3.742599141052658784e-01 -1.896076276582848719e-01
-3.697531172335956628e-01 -1.875963463081958549e-01
-3.653070524208033021e-01 -1.857800996338003774e-01
-3.609998219162716127e-01 -1.842064468402015154e-01
-3.569077677586407482e-01 -1.829197313996588359e-01
-3.531046388645230349e-01 -1.819595274636320037e-01
-3.496593853106853000e-01 -1.813603603862977143e-01
-3.466358258552945659e-01 -1.811505923893830805e-01
-3.440904334605329740e-01 -1.813521426747534693e-01
-3.420723052471846271e-01 -1.819799158136807538e-01
-3.406210257463359037e-01 -1.830410808805858491e-01
-3.397668297397319903e-01 -1.845350438216504241e-01
-3.395289171966800468e-01 -1.864534218522627407e-01
-3.399156937067349116e-01 -1.887796295911098043e-01
-3.409239206320168192e-01 -1.914895115240132228e-01
-3.425387778699326424e-01 -1.945509672526029854e-01
-3.447334748452742237e-01 -1.979245954033971855e-01
-3.474702789123405577e-01 -2.015644448193075478e-01
-3.506996599918617008e-01 -2.054188293339067051e-01
-3.543623014264462023e-01 -2.094298386351180208e-01
-3.583887034535640503e-01 -2.135358555626291344e-01
-3.627008291349272384e-01 -2.176712454620278181e-01
-3.672129493980024750e-01 -2.217681007190271947e-01
-3.718331286257929302e-01 -2.257572474979521182e-01
-3.764644175738617871e-01 -2.295686853142769046e-01
